0;-0.31
1;-0.31
2;-0.31
3;-0.31
4;-0.31
5;-0.31
6;-0.31
7;-0.31
8;-0.29
9;-0.285
10;-0.295
11;-0.315
12;-0.305
13;-0.3
14;-0.28
15;-0.275
16;-0.275
17;-0.27
18;-0.26
19;-0.24
20;-0.225
21;-0.215
22;-0.205
23;-0.22
24;-0.205
25;-0.17
26;-0.15
27;-0.155
28;-0.14
29;-0.13
30;-0.115
31;-0.075
32;-0.05
33;-0.06
34;-0.05
35;-0.04
36;-0.015
37;0.005
38;0.03
39;0.045
40;0.07
41;0.08
42;0.105
43;0.13
44;0.185
45;0.225
46;0.255
47;0.27
48;0.305
49;0.345
50;0.4
51;0.43
52;0.46
53;0.46
54;0.475
55;0.52
56;0.555
57;0.585
58;0.575
59;0.575
60;0.565
61;0.57
62;0.56
63;0.55
64;0.53
65;0.485
66;0.48
67;0.465
68;0.46
69;0.42
70;0.385
71;0.355
72;0.305
73;0.285
74;0.255
75;0.21
76;0.165
77;0.12
78;0.105
79;0.085
80;0.075
81;0.04
82;0.005
83;-0.04
84;-0.045
85;-0.055
86;-0.04
87;-0.07
88;-0.1
89;-0.125
90;-0.135
91;-0.14
92;-0.155
93;-0.19
94;-0.19
95;-0.195
96;-0.205
97;-0.2
98;-0.215
99;-0.25
100;-0.285
101;-0.295
102;-0.29
103;-0.285
104;-0.265
105;-0.27
106;-0.285
107;-0.33
108;-0.35
109;-0.35
110;-0.31
111;-0.3
112;-0.305
113;-0.33
114;-0.35
115;-0.34
116;-0.335
117;-0.335
118;-0.33
119;-0.34
120;-0.345
121;-0.335
122;-0.335
123;-0.33
124;-0.325
125;-0.34
126;-0.34
127;-0.335
128;-0.315
129;-0.31
130;-0.315
131;-0.33
132;-0.32
133;-0.315
134;-0.28
135;-0.275
136;-0.28
137;-0.28
138;-0.275
139;-0.25
140;-0.23
141;-0.23
142;-0.245
143;-0.26
144;-0.25
145;-0.235
146;-0.215
147;-0.21
148;-0.25
149;-0.285
150;-0.28
151;-0.245
152;-0.235
153;-0.235
154;-0.26
155;-0.255
156;-0.26
157;-0.245
158;-0.215
159;-0.23
160;-0.245
161;-0.275
162;-0.295
163;-0.28
164;-0.255
165;-0.25
166;-0.265
167;-0.3
168;-0.29
169;-0.29
170;-0.26
171;-0.265
172;-0.275
173;-0.28
174;-0.285
175;-0.265
176;-0.24
177;-0.265
178;-0.295
179;-0.33
180;-0.34
181;-0.295
182;-0.285
183;-0.295
184;-0.33
185;-0.345
186;-0.345
187;-0.32
188;-0.31
189;-0.335
190;-0.34
191;-0.35
192;-0.34
193;-0.35
194;-0.315
195;-0.335
196;-0.345
197;-0.325
198;-0.32
199;-0.3
200;-0.305
201;-0.305
202;-0.325
203;-0.355
204;-0.37
205;-0.35
206;-0.345
207;-0.325
208;-0.355
209;-0.365
210;-0.355
211;-0.365
212;-0.35
213;-0.345
214;-0.34
215;-0.355
216;-0.35
217;-0.34
218;-0.345
219;-0.345
220;-0.36
221;-0.36
222;-0.355
223;-0.34
224;-0.33
225;-0.34
226;-0.35
227;-0.37
228;-0.36
229;-0.345
230;-0.36
231;-0.37
232;-0.37
233;-0.37
234;-0.375
235;-0.36
236;-0.355
237;-0.355
238;-0.365
239;-0.39
240;-0.39
241;-0.38
242;-0.365
243;-0.385
244;-0.38
245;-0.375
246;-0.375
247;-0.355
248;-0.34
249;-0.335
250;-0.335
251;-0.35
252;-0.365
253;-0.375
254;-0.365
255;-0.37
256;-0.375
257;-0.395
258;-0.4
259;-0.38
260;-0.35
261;-0.345
262;-0.345
263;-0.35
264;-0.36
265;-0.355
266;-0.345
267;-0.365
268;-0.395
269;-0.4
270;-0.395
271;-0.35
272;-0.325
273;-0.335
274;-0.35
275;-0.385
276;-0.37
277;-0.36
278;-0.345
279;-0.33
280;-0.335
281;-0.34
282;-0.36
283;-0.34
284;-0.335
285;-0.345
286;-0.39
287;-0.4
288;-0.395
289;-0.36
290;-0.345
291;-0.345
292;-0.345
293;-0.34
294;-0.35
295;-0.315
296;-0.29
297;-0.3
298;-0.32
299;-0.325
300;-0.305
301;-0.31
302;-0.28
303;-0.265
304;-0.245
305;-0.235
306;-0.185
307;-0.1
308;-0.005
309;0.035
310;0.01
311;-0.03
312;-0.07
313;-0.09
314;-0.1
315;-0.115
316;-0.135
317;-0.16
318;-0.185
319;-0.18
320;-0.185
321;-0.225
322;-0.235
323;-0.26
324;-0.29
325;-0.305
326;-0.315
327;-0.36
328;-0.385
329;-0.385
330;-0.38
331;-0.355
332;-0.335
333;-0.32
334;-0.32
335;-0.335
336;-0.33
337;-0.335
338;-0.33
339;-0.34
340;-0.37
341;-0.425
342;-0.465
343;-0.46
344;-0.32
345;-0.035
346;0.4
347;0.895
348;1.335
349;1.685
350;1.9
351;2.01
352;1.98
353;1.815
354;1.47
355;0.94
356;0.3
357;-0.34
358;-0.765
359;-0.725
360;-0.55
361;-0.45
362;-0.445
363;-0.46
364;-0.455
365;-0.435
366;-0.415
367;-0.39
368;-0.395
369;-0.415
370;-0.435
371;-0.45
372;-0.44
373;-0.415
374;-0.405
375;-0.415
376;-0.425
377;-0.43
378;-0.43
379;-0.435
380;-0.425
381;-0.42
382;-0.42
383;-0.415
384;-0.41
385;-0.41
386;-0.39
387;-0.39
388;-0.415
389;-0.43
390;-0.455
391;-0.41
392;-0.385
393;-0.38
394;-0.39
395;-0.385
396;-0.38
397;-0.385
398;-0.355
399;-0.355
400;-0.35
401;-0.35
402;-0.36
403;-0.345
404;-0.315
405;-0.29
406;-0.29
407;-0.32
408;-0.3
409;-0.275
410;-0.255
411;-0.245
412;-0.255
413;-0.25
414;-0.225
415;-0.215
416;-0.22
417;-0.19
418;-0.16
419;-0.115
420;-0.075
421;-0.07
422;-0.085
423;-0.095
424;-0.095
425;-0.07
426;-0.02
427;0.01
428;0.035
429;0.015
430;0.015
431;0.04
432;0.1
433;0.145
434;0.195
435;0.235
436;0.25
437;0.27
438;0.3
439;0.355
440;0.42
441;0.465
442;0.495
443;0.515
444;0.525
445;0.555
446;0.6
447;0.64
448;0.65
449;0.625
450;0.615
451;0.605
452;0.645
453;0.64
454;0.6
455;0.535
456;0.525
457;0.55
458;0.565
459;0.54
460;0.52
461;0.49
462;0.45
463;0.415
464;0.365
465;0.295
466;0.26
467;0.245
468;0.215
469;0.165
470;0.15
471;0.115
472;0.085
473;0.06
474;0.025
475;0.03
476;0.03
477;0
478;-0.04
479;-0.06
480;-0.095
481;-0.075
482;-0.07
483;-0.075
484;-0.105
485;-0.13
486;-0.14
487;-0.15
488;-0.135
489;-0.17
490;-0.195
491;-0.21
492;-0.21
493;-0.195
494;-0.21
495;-0.21
496;-0.225
497;-0.245
498;-0.26
499;-0.25
500;-0.24
501;-0.24
502;-0.245
503;-0.25
504;-0.255
505;-0.25
506;-0.23
507;-0.225
508;-0.225
509;-0.205
510;-0.2
511;-0.215
512;-0.25
513;-0.285
514;-0.275
515;-0.255
516;-0.245
517;-0.22
518;-0.21
519;-0.235
520;-0.26
521;-0.265
522;-0.26
523;-0.23
524;-0.185
525;-0.16
526;-0.19
527;-0.19
528;-0.175
529;-0.16
530;-0.145
531;-0.145
532;-0.155
533;-0.16
534;-0.15
535;-0.14
536;-0.135
537;-0.13
538;-0.14
539;-0.155
540;-0.17
541;-0.16
542;-0.155
543;-0.165
544;-0.17
545;-0.17
546;-0.165
547;-0.155
548;-0.125
549;-0.13
550;-0.17
551;-0.205
552;-0.22
553;-0.21
554;-0.195
555;-0.205
556;-0.21
557;-0.21
558;-0.185
559;-0.175
560;-0.18
561;-0.195
562;-0.2
563;-0.215
564;-0.235
565;-0.225
566;-0.21
567;-0.225
568;-0.245
569;-0.245
570;-0.25
571;-0.255
572;-0.245
573;-0.27
574;-0.27
575;-0.25
576;-0.255
577;-0.245
578;-0.215
579;-0.215
580;-0.245
581;-0.27
582;-0.29
583;-0.285
584;-0.24
585;-0.235
586;-0.255
587;-0.275
588;-0.32
589;-0.305
590;-0.265
591;-0.255
592;-0.26
593;-0.29
594;-0.335
595;-0.31
596;-0.265
597;-0.27
598;-0.305
599;-0.335
600;-0.335
601;-0.315
602;-0.295
603;-0.29
604;-0.3
605;-0.31
606;-0.31
607;-0.3
608;-0.295
609;-0.285
610;-0.29
611;-0.31
612;-0.32
613;-0.3
614;-0.285
615;-0.295
616;-0.3
617;-0.32
618;-0.345
619;-0.3
620;-0.295
621;-0.3
622;-0.305
623;-0.305
624;-0.315
625;-0.31
626;-0.295
627;-0.29
628;-0.32
629;-0.31
630;-0.315
631;-0.285
632;-0.27
633;-0.265
634;-0.275
635;-0.28
636;-0.3
637;-0.335
638;-0.325
639;-0.325
640;-0.325
641;-0.33
642;-0.34
643;-0.31
644;-0.295
645;-0.29
646;-0.29
647;-0.28
648;-0.275
649;-0.27
650;-0.26
651;-0.27
652;-0.295
653;-0.31
654;-0.31
655;-0.295
656;-0.275
657;-0.285
658;-0.315
659;-0.315
660;-0.31
661;-0.295
662;-0.28
663;-0.28
664;-0.285
665;-0.29
666;-0.295
667;-0.285
668;-0.285
669;-0.26
670;-0.275
671;-0.29
672;-0.28
673;-0.285
674;-0.235
675;-0.21
676;-0.185
677;-0.175
678;-0.15
679;-0.11
680;-0.085
681;-0.025
682;0.025
683;0.06
684;0.05
685;0.03
686;-0.005
687;-0.045
688;-0.095
689;-0.115
690;-0.11
691;-0.11
692;-0.09
693;-0.1
694;-0.135
695;-0.18
696;-0.225
697;-0.24
698;-0.23
699;-0.255
700;-0.285
701;-0.31
702;-0.31
703;-0.28
704;-0.26
705;-0.27
706;-0.285
707;-0.32
708;-0.32
709;-0.3
710;-0.26
711;-0.265
712;-0.3
713;-0.37
714;-0.415
715;-0.45
716;-0.435
717;-0.345
718;-0.13
719;0.28
720;0.79
721;1.29
722;1.65
723;1.865
724;1.995
725;2.03
726;1.97
727;1.805
728;1.44
729;0.8
730;0.16
731;-0.48
732;-0.74
733;-0.535
734;-0.355
735;-0.33
736;-0.36
737;-0.39
738;-0.365
739;-0.34
740;-0.295
741;-0.32
742;-0.365
743;-0.42
744;-0.425
745;-0.41
746;-0.395
747;-0.395
748;-0.405
749;-0.415
750;-0.42
751;-0.41
752;-0.395
753;-0.405
754;-0.405
755;-0.415
756;-0.4
757;-0.37
758;-0.36
759;-0.355
760;-0.365
761;-0.39
762;-0.39
763;-0.375
764;-0.335
765;-0.325
766;-0.34
767;-0.365
768;-0.37
769;-0.34
770;-0.315
771;-0.3
772;-0.31
773;-0.305
774;-0.3
775;-0.29
776;-0.265
777;-0.255
778;-0.26
779;-0.26
780;-0.255
781;-0.275
782;-0.255
783;-0.24
784;-0.245
785;-0.22
786;-0.2
787;-0.16
788;-0.15
789;-0.15
790;-0.145
791;-0.135
792;-0.115
793;-0.1
794;-0.08
795;-0.045
796;-0.025
797;-0.01
798;0.015
799;0.05
800;0.095
801;0.12
802;0.125
803;0.13
804;0.165
805;0.22
806;0.275
807;0.31
808;0.35
809;0.375
810;0.395
811;0.425
812;0.48
813;0.545
814;0.575
815;0.57
816;0.575
817;0.6
818;0.64
819;0.635
820;0.615
821;0.615
822;0.605
823;0.61
824;0.6
825;0.575
826;0.515
827;0.495
828;0.44
829;0.44
830;0.445
831;0.41
832;0.34
833;0.265
834;0.245
835;0.23
836;0.215
837;0.175
838;0.125
839;0.055
840;0.035
841;0.015
842;0.01
843;-0.015
844;-0.04
845;-0.045
846;-0.07
847;-0.055
848;-0.06
849;-0.09
850;-0.125
851;-0.165
852;-0.21
853;-0.2
854;-0.2
855;-0.205
856;-0.22
857;-0.255
858;-0.255
859;-0.27
860;-0.265
861;-0.255
862;-0.25
863;-0.275
864;-0.285
865;-0.295
866;-0.29
867;-0.275
868;-0.28
869;-0.3
870;-0.31
871;-0.315
872;-0.32
873;-0.285
874;-0.325
875;-0.34
876;-0.355
877;-0.35
878;-0.34
879;-0.335
880;-0.335
881;-0.345
882;-0.325
883;-0.33
884;-0.345
885;-0.345
886;-0.36
887;-0.33
888;-0.32
889;-0.33
890;-0.325
891;-0.33
892;-0.335
893;-0.315
894;-0.31
895;-0.3
896;-0.27
897;-0.27
898;-0.275
899;-0.29
900;-0.295
901;-0.3
902;-0.28
903;-0.295
904;-0.285
905;-0.295
906;-0.28
907;-0.26
908;-0.27
909;-0.285
910;-0.3
911;-0.29
912;-0.29
913;-0.29
914;-0.275
915;-0.3
916;-0.305
917;-0.29
918;-0.29
919;-0.28
920;-0.28
921;-0.27
922;-0.295
923;-0.305
924;-0.32
925;-0.32
926;-0.3
927;-0.29
928;-0.285
929;-0.3
930;-0.305
931;-0.305
932;-0.3
933;-0.315
934;-0.32
935;-0.315
936;-0.325
937;-0.305
938;-0.27
939;-0.275
940;-0.29
941;-0.32
942;-0.32
943;-0.285
944;-0.26
945;-0.3
946;-0.335
947;-0.355
948;-0.34
949;-0.31
950;-0.295
951;-0.295
952;-0.31
953;-0.33
954;-0.355
955;-0.33
956;-0.325
957;-0.315
958;-0.33
959;-0.34
960;-0.34
961;-0.3
962;-0.275
963;-0.295
964;-0.33
965;-0.365
966;-0.36
967;-0.33
968;-0.315
969;-0.31
970;-0.315
971;-0.335
972;-0.34
973;-0.325
974;-0.32
975;-0.31
976;-0.32
977;-0.305
978;-0.31
979;-0.31
980;-0.315
981;-0.315
982;-0.325
983;-0.33
984;-0.345
985;-0.32
986;-0.3
987;-0.3
988;-0.305
989;-0.32
990;-0.32
991;-0.305
992;-0.31
993;-0.34
994;-0.365
995;-0.365
996;-0.34
997;-0.325
998;-0.325
999;-0.31
1000;-0.315
1001;-0.305
1002;-0.29
1003;-0.285
1004;-0.285
1005;-0.31
1006;-0.32
1007;-0.3
1008;-0.29
1009;-0.285
1010;-0.33
1011;-0.35
1012;-0.355
1013;-0.34
1014;-0.32
1015;-0.32
1016;-0.315
1017;-0.33
1018;-0.33
1019;-0.325
1020;-0.295
1021;-0.29
1022;-0.295
1023;-0.28
1024;-0.33
1025;-0.33
1026;-0.33
1027;-0.3
1028;-0.29
1029;-0.29
1030;-0.295
1031;-0.315
1032;-0.325
1033;-0.285
1034;-0.28
1035;-0.26
1036;-0.265
1037;-0.25
1038;-0.205
1039;-0.165
1040;-0.14
1041;-0.135
1042;-0.14
1043;-0.105
1044;-0.075
1045;0.01
1046;0.035
1047;0.035
1048;0.025
1049;-0.01
1050;-0.03
1051;-0.07
1052;-0.105
1053;-0.115
1054;-0.125
1055;-0.16
1056;-0.165
1057;-0.17
1058;-0.185
1059;-0.21
1060;-0.25
1061;-0.265
1062;-0.275
1063;-0.275
1064;-0.305
1065;-0.285
1066;-0.275
1067;-0.25
1068;-0.245
1069;-0.26
1070;-0.295
1071;-0.305
1072;-0.325
1073;-0.34
1074;-0.345
1075;-0.36
1076;-0.39
1077;-0.435
1078;-0.43
1079;-0.285
1080;0.02
1081;0.47
1082;1.005
1083;1.47
1084;1.77
1085;1.95
1086;2.03
1087;2.01
1088;1.865
1089;1.535
1090;0.95
1091;0.31
1092;-0.33
1093;-0.75
1094;-0.615
1095;-0.415
1096;-0.355
1097;-0.385
1098;-0.405
1099;-0.365
1100;-0.33
1101;-0.335
1102;-0.35
1103;-0.39
1104;-0.41
1105;-0.41
1106;-0.415
1107;-0.39
1108;-0.39
1109;-0.38
1110;-0.385
1111;-0.38
1112;-0.395
1113;-0.415
1114;-0.435
1115;-0.425
1116;-0.405
1117;-0.385
1118;-0.39
1119;-0.395
1120;-0.4
1121;-0.405
1122;-0.39
1123;-0.375
1124;-0.385
1125;-0.37
1126;-0.36
1127;-0.355
1128;-0.335
1129;-0.315
1130;-0.33
1131;-0.36
1132;-0.355
1133;-0.35
1134;-0.345
1135;-0.305
1136;-0.295
1137;-0.26
1138;-0.295
1139;-0.3
1140;-0.29
1141;-0.265
1142;-0.255
1143;-0.24
1144;-0.25
1145;-0.25
1146;-0.235
1147;-0.22
1148;-0.185
1149;-0.165
1150;-0.15
1151;-0.155
1152;-0.13
1153;-0.12
1154;-0.105
1155;-0.095
1156;-0.06
1157;-0.04
1158;0
1159;0.02
1160;0.03
1161;0.05
1162;0.06
1163;0.095
1164;0.125
1165;0.17
1166;0.2
1167;0.245
1168;0.255
1169;0.285
1170;0.33
1171;0.375
1172;0.4
1173;0.42
1174;0.42
1175;0.455
1176;0.5
1177;0.54
1178;0.56
1179;0.56
1180;0.58
1181;0.58
1182;0.585
1183;0.595
1184;0.585
1185;0.56
1186;0.525
1187;0.49
1188;0.475
1189;0.455
1190;0.435
1191;0.41
1192;0.355
1193;0.285
1194;0.245
1195;0.205
1196;0.175
1197;0.15
1198;0.145
1199;0.12
1200;0.06
1201;0.03
1202;-0.005
1203;-0.05
1204;-0.065
1205;-0.06
1206;-0.065
1207;-0.08
1208;-0.095
1209;-0.125
1210;-0.15
1211;-0.16
1212;-0.16
1213;-0.16
1214;-0.185
1215;-0.22
1216;-0.25
1217;-0.245
1218;-0.245
1219;-0.245
1220;-0.265
1221;-0.27
1222;-0.275
1223;-0.26
1224;-0.255
1225;-0.26
1226;-0.3
1227;-0.335
1228;-0.345
1229;-0.325
1230;-0.315
1231;-0.29
1232;-0.29
1233;-0.31
1234;-0.33
1235;-0.34
1236;-0.335
1237;-0.32
1238;-0.32
1239;-0.33
1240;-0.335
1241;-0.34
1242;-0.32
1243;-0.285
1244;-0.265
1245;-0.28
1246;-0.29
1247;-0.315
1248;-0.305
1249;-0.28
1250;-0.29
1251;-0.3
1252;-0.305
1253;-0.29
1254;-0.275
1255;-0.27
1256;-0.28
1257;-0.295
1258;-0.315
1259;-0.28
1260;-0.24
1261;-0.225
1262;-0.245
1263;-0.255
1264;-0.26
1265;-0.265
1266;-0.27
1267;-0.25
1268;-0.245
1269;-0.25
1270;-0.25
1271;-0.255
1272;-0.255
1273;-0.225
1274;-0.215
1275;-0.25
1276;-0.255
1277;-0.255
1278;-0.245
1279;-0.23
1280;-0.225
1281;-0.235
1282;-0.245
1283;-0.24
1284;-0.25
1285;-0.265
1286;-0.275
1287;-0.29
1288;-0.295
1289;-0.31
1290;-0.3
1291;-0.29
1292;-0.285
1293;-0.29
1294;-0.305
1295;-0.3
1296;-0.29
1297;-0.295
1298;-0.305
1299;-0.31
1300;-0.315
1301;-0.32
1302;-0.285
1303;-0.275
1304;-0.28
1305;-0.295
1306;-0.3
1307;-0.31
1308;-0.295
1309;-0.29
1310;-0.305
1311;-0.32
1312;-0.335
1313;-0.32
1314;-0.31
1315;-0.305
1316;-0.3
1317;-0.315
1318;-0.33
1319;-0.345
1320;-0.335
1321;-0.32
1322;-0.31
1323;-0.325
1324;-0.345
1325;-0.37
1326;-0.345
1327;-0.325
1328;-0.325
1329;-0.325
1330;-0.335
1331;-0.335
1332;-0.315
1333;-0.3
1334;-0.315
1335;-0.31
1336;-0.315
1337;-0.33
1338;-0.32
1339;-0.3
1340;-0.315
1341;-0.325
1342;-0.335
1343;-0.325
1344;-0.315
1345;-0.315
1346;-0.31
1347;-0.35
1348;-0.36
1349;-0.345
1350;-0.32
1351;-0.295
1352;-0.29
1353;-0.295
1354;-0.32
1355;-0.325
1356;-0.325
1357;-0.32
1358;-0.34
1359;-0.33
1360;-0.33
1361;-0.335
1362;-0.305
1363;-0.31
1364;-0.295
1365;-0.325
1366;-0.34
1367;-0.34
1368;-0.315
1369;-0.305
1370;-0.31
1371;-0.32
1372;-0.33
1373;-0.325
1374;-0.31
1375;-0.29
1376;-0.295
1377;-0.31
1378;-0.305
1379;-0.305
1380;-0.295
1381;-0.285
1382;-0.29
1383;-0.285
1384;-0.295
1385;-0.31
1386;-0.315
1387;-0.315
1388;-0.33
1389;-0.325
1390;-0.335
1391;-0.32
1392;-0.3
1393;-0.275
1394;-0.26
1395;-0.265
1396;-0.295
1397;-0.3
1398;-0.29
1399;-0.235
1400;-0.225
1401;-0.19
1402;-0.19
1403;-0.155
1404;-0.085
1405;-0.02
1406;0.055
1407;0.07
1408;0.025
1409;0.005
1410;-0.02
1411;-0.06
1412;-0.08
1413;-0.085
1414;-0.115
1415;-0.135
1416;-0.14
1417;-0.175
1418;-0.21
1419;-0.235
1420;-0.265
1421;-0.285
1422;-0.295
1423;-0.305
1424;-0.33
1425;-0.325
1426;-0.325
1427;-0.33
1428;-0.31
1429;-0.31
1430;-0.315
1431;-0.345
1432;-0.35
1433;-0.335
1434;-0.315
1435;-0.31
1436;-0.325
1437;-0.39
1438;-0.48
1439;-0.5
1440;-0.445
1441;-0.265
1442;0.02
1443;0.455
1444;0.94
1445;1.42
1446;1.73
1447;1.92
1448;2.01
1449;1.99
1450;1.825
1451;1.48
1452;0.95
1453;0.31
1454;-0.33
1455;-0.755
1456;-0.7
1457;-0.51
1458;-0.42
1459;-0.41
1460;-0.415
1461;-0.39
1462;-0.405
1463;-0.405
1464;-0.425
1465;-0.41
1466;-0.41
1467;-0.41
1468;-0.425
1469;-0.435
1470;-0.43
1471;-0.425
1472;-0.43
1473;-0.435
1474;-0.45
1475;-0.465
1476;-0.445
1477;-0.435
1478;-0.43
1479;-0.45
1480;-0.465
1481;-0.47
1482;-0.455
1483;-0.42
1484;-0.42
1485;-0.41
1486;-0.425
1487;-0.415
1488;-0.395
1489;-0.375
1490;-0.39
1491;-0.405
1492;-0.4
1493;-0.4
1494;-0.395
1495;-0.405
1496;-0.38
1497;-0.35
1498;-0.345
1499;-0.345
1500;-0.32
1501;-0.3
1502;-0.32
1503;-0.34
1504;-0.355
1505;-0.35
1506;-0.33
1507;-0.285
1508;-0.265
1509;-0.28
1510;-0.285
1511;-0.275
1512;-0.245
1513;-0.215
1514;-0.205
1515;-0.2
1516;-0.185
1517;-0.18
1518;-0.16
1519;-0.14
1520;-0.125
1521;-0.115
1522;-0.105
1523;-0.1
1524;-0.08
1525;-0.045
1526;-0.045
1527;-0.03
1528;0.005
1529;0.035
1530;0.09
1531;0.13
1532;0.175
1533;0.18
1534;0.19
1535;0.235
1536;0.265
1537;0.345
1538;0.39
1539;0.395
1540;0.395
1541;0.415
1542;0.45
1543;0.495
1544;0.53
1545;0.535
1546;0.55
1547;0.54
1548;0.545
1549;0.55
1550;0.56
1551;0.545
1552;0.535
1553;0.515
1554;0.49
1555;0.475
1556;0.43
1557;0.395
1558;0.355
1559;0.31
1560;0.28
1561;0.255
1562;0.225
1563;0.175
1564;0.15
1565;0.12
1566;0.105
1567;0.1
1568;0.05
1569;0.025
1570;-0.01
1571;-0.02
1572;-0.035
1573;-0.055
1574;-0.08
1575;-0.09
1576;-0.13
1577;-0.155
1578;-0.185
1579;-0.18
1580;-0.19
1581;-0.2
1582;-0.225
1583;-0.245
1584;-0.24
1585;-0.245
1586;-0.25
1587;-0.28
1588;-0.3
1589;-0.325
1590;-0.33
1591;-0.315
1592;-0.335
1593;-0.35
1594;-0.37
1595;-0.36
1596;-0.35
1597;-0.33
1598;-0.325
1599;-0.33
1600;-0.365
1601;-0.39
1602;-0.395
1603;-0.39
1604;-0.365
1605;-0.37
1606;-0.375
1607;-0.38
1608;-0.365
1609;-0.345
1610;-0.355
1611;-0.365
1612;-0.37
1613;-0.39
1614;-0.37
1615;-0.355
1616;-0.35
1617;-0.36
1618;-0.375
1619;-0.37
1620;-0.37
1621;-0.35
1622;-0.345
1623;-0.345
1624;-0.365
1625;-0.35
1626;-0.345
1627;-0.335
1628;-0.33
1629;-0.335
1630;-0.32
1631;-0.315
1632;-0.305
1633;-0.295
1634;-0.305
1635;-0.31
1636;-0.305
1637;-0.295
1638;-0.29
1639;-0.295
1640;-0.31
1641;-0.325
1642;-0.335
1643;-0.32
1644;-0.29
1645;-0.295
1646;-0.3
1647;-0.31
1648;-0.32
1649;-0.315
1650;-0.285
1651;-0.26
1652;-0.275
1653;-0.3
1654;-0.315
1655;-0.31
1656;-0.3
1657;-0.29
1658;-0.3
1659;-0.315
1660;-0.315
1661;-0.315
1662;-0.315
1663;-0.31
1664;-0.315
1665;-0.315
1666;-0.34
1667;-0.355
1668;-0.345
1669;-0.33
1670;-0.325
1671;-0.315
1672;-0.35
1673;-0.345
1674;-0.34
1675;-0.335
1676;-0.34
1677;-0.355
1678;-0.375
1679;-0.365
1680;-0.35
1681;-0.335
1682;-0.35
1683;-0.36
1684;-0.37
1685;-0.37
1686;-0.37
1687;-0.355
1688;-0.355
1689;-0.37
1690;-0.385
1691;-0.375
1692;-0.365
1693;-0.34
1694;-0.345
1695;-0.36
1696;-0.37
1697;-0.365
1698;-0.36
1699;-0.365
1700;-0.35
1701;-0.355
1702;-0.38
1703;-0.39
1704;-0.39
1705;-0.365
1706;-0.35
1707;-0.36
1708;-0.4
1709;-0.415
1710;-0.395
1711;-0.385
1712;-0.385
1713;-0.37
1714;-0.385
1715;-0.375
1716;-0.375
1717;-0.365
1718;-0.35
1719;-0.38
1720;-0.39
1721;-0.385
1722;-0.4
1723;-0.365
1724;-0.375
1725;-0.39
1726;-0.41
1727;-0.395
1728;-0.4
1729;-0.4
1730;-0.405
1731;-0.4
1732;-0.385
1733;-0.38
1734;-0.365
1735;-0.39
1736;-0.395
1737;-0.415
1738;-0.43
1739;-0.42
1740;-0.405
1741;-0.39
1742;-0.37
1743;-0.38
1744;-0.38
1745;-0.395
1746;-0.4
1747;-0.395
1748;-0.385
1749;-0.395
1750;-0.405
1751;-0.395
1752;-0.4
1753;-0.385
1754;-0.37
1755;-0.39
1756;-0.395
1757;-0.395
1758;-0.39
1759;-0.38
1760;-0.395
1761;-0.42
1762;-0.415
1763;-0.385
1764;-0.355
1765;-0.355
1766;-0.355
1767;-0.365
1768;-0.38
1769;-0.375
1770;-0.375
1771;-0.365
1772;-0.37
1773;-0.37
1774;-0.39
1775;-0.385
1776;-0.365
1777;-0.33
1778;-0.32
1779;-0.3
1780;-0.31
1781;-0.29
1782;-0.255
1783;-0.215
1784;-0.14
1785;-0.08
1786;-0.065
1787;-0.06
1788;-0.085
1789;-0.095
1790;-0.125
1791;-0.175
1792;-0.19
1793;-0.215
1794;-0.22
1795;-0.2
1796;-0.205
1797;-0.24
1798;-0.29
1799;-0.29
1800;-0.305
1801;-0.31
1802;-0.36
1803;-0.415
1804;-0.455
1805;-0.445
1806;-0.435
1807;-0.41
1808;-0.4
1809;-0.41
1810;-0.425
1811;-0.435
1812;-0.41
1813;-0.39
1814;-0.37
1815;-0.385
1816;-0.405
1817;-0.43
1818;-0.47
1819;-0.51
1820;-0.53
1821;-0.505
1822;-0.405
1823;-0.15
1824;0.285
1825;0.83
1826;1.33
1827;1.675
1828;1.85
1829;1.94
1830;1.955
1831;1.86
1832;1.595
1833;1.1
1834;0.46
1835;-0.18
1836;-0.82
1837;-0.83
1838;-0.65
1839;-0.54
1840;-0.54
1841;-0.545
1842;-0.53
1843;-0.5
1844;-0.505
1845;-0.5
1846;-0.53
1847;-0.51
1848;-0.505
1849;-0.495
1850;-0.48
1851;-0.51
1852;-0.525
1853;-0.52
1854;-0.505
1855;-0.485
1856;-0.495
1857;-0.515
1858;-0.53
1859;-0.535
1860;-0.525
1861;-0.5
1862;-0.485
1863;-0.52
1864;-0.505
1865;-0.505
1866;-0.485
1867;-0.475
1868;-0.465
1869;-0.475
1870;-0.485
1871;-0.485
1872;-0.46
1873;-0.46
1874;-0.49
1875;-0.5
1876;-0.5
1877;-0.475
1878;-0.455
1879;-0.43
1880;-0.405
1881;-0.415
1882;-0.445
1883;-0.47
1884;-0.44
1885;-0.395
1886;-0.405
1887;-0.415
1888;-0.43
1889;-0.42
1890;-0.41
1891;-0.36
1892;-0.335
1893;-0.34
1894;-0.34
1895;-0.33
1896;-0.305
1897;-0.27
1898;-0.285
1899;-0.29
1900;-0.29
1901;-0.265
1902;-0.225
1903;-0.175
1904;-0.15
1905;-0.125
1906;-0.135
1907;-0.13
1908;-0.135
1909;-0.11
1910;-0.1
1911;-0.065
1912;-0.05
1913;0.005
1914;0.035
1915;0.09
1916;0.125
1917;0.155
1918;0.17
1919;0.21
1920;0.26
1921;0.3
1922;0.345
1923;0.375
1924;0.405
1925;0.41
1926;0.435
1927;0.47
1928;0.495
1929;0.495
1930;0.49
1931;0.485
1932;0.495
1933;0.52
1934;0.52
1935;0.5
1936;0.465
1937;0.415
1938;0.41
1939;0.4
1940;0.385
1941;0.355
1942;0.29
1943;0.25
1944;0.245
1945;0.23
1946;0.2
1947;0.15
1948;0.1
1949;0.09
1950;0.06
1951;0.05
1952;0.035
1953;0.01
1954;-0.04
1955;-0.08
1956;-0.08
1957;-0.095
1958;-0.105
1959;-0.115
1960;-0.15
1961;-0.175
1962;-0.16
1963;-0.155
1964;-0.165
1965;-0.195
1966;-0.21
1967;-0.23
1968;-0.225
1969;-0.24
1970;-0.255
1971;-0.265
1972;-0.31
1973;-0.32
1974;-0.31
1975;-0.295
1976;-0.3
1977;-0.31
1978;-0.32
1979;-0.33
1980;-0.345
1981;-0.36
1982;-0.345
1983;-0.345
1984;-0.355
1985;-0.35
1986;-0.35
1987;-0.355
1988;-0.34
1989;-0.355
1990;-0.355
1991;-0.36
1992;-0.33
1993;-0.31
1994;-0.32
1995;-0.325
1996;-0.335
1997;-0.35
1998;-0.355
1999;-0.355
2000;-0.33
2001;-0.355
2002;-0.33
2003;-0.335
2004;-0.33
2005;-0.305
2006;-0.28
2007;-0.275
2008;-0.265
2009;-0.27
2010;-0.26
2011;-0.255
2012;-0.255
2013;-0.27
2014;-0.275
2015;-0.265
2016;-0.29
2017;-0.26
2018;-0.245
2019;-0.24
2020;-0.25
2021;-0.255
2022;-0.265
2023;-0.265
2024;-0.275
2025;-0.27
2026;-0.275
2027;-0.27
2028;-0.26
2029;-0.235
2030;-0.245
2031;-0.26
2032;-0.28
2033;-0.28
2034;-0.27
2035;-0.24
2036;-0.245
2037;-0.275
2038;-0.285
2039;-0.27
2040;-0.265
2041;-0.255
2042;-0.28
2043;-0.285
2044;-0.3
2045;-0.3
2046;-0.3
2047;-0.305
2048;-0.33
2049;-0.315
2050;-0.335
2051;-0.34
2052;-0.31
2053;-0.305
2054;-0.315
2055;-0.34
2056;-0.355
2057;-0.34
2058;-0.32
2059;-0.315
2060;-0.335
2061;-0.35
2062;-0.355
2063;-0.335
2064;-0.315
2065;-0.305
2066;-0.345
2067;-0.36
2068;-0.375
2069;-0.365
2070;-0.36
2071;-0.35
2072;-0.34
2073;-0.34
2074;-0.35
2075;-0.335
2076;-0.315
2077;-0.32
2078;-0.315
2079;-0.34
2080;-0.39
2081;-0.385
2082;-0.365
2083;-0.365
2084;-0.36
2085;-0.36
2086;-0.37
2087;-0.365
2088;-0.35
2089;-0.355
2090;-0.355
2091;-0.36
2092;-0.395
2093;-0.4
2094;-0.395
2095;-0.385
2096;-0.375
2097;-0.36
2098;-0.39
2099;-0.4
2100;-0.395
2101;-0.335
2102;-0.33
2103;-0.355
2104;-0.38
2105;-0.395
2106;-0.39
2107;-0.37
2108;-0.35
2109;-0.355
2110;-0.35
2111;-0.375
2112;-0.365
2113;-0.35
2114;-0.33
2115;-0.365
2116;-0.365
2117;-0.36
2118;-0.35
2119;-0.335
2120;-0.335
2121;-0.365
2122;-0.395
2123;-0.385
2124;-0.37
2125;-0.365
2126;-0.37
2127;-0.4
2128;-0.41
2129;-0.39
2130;-0.4
2131;-0.375
2132;-0.37
2133;-0.37
2134;-0.395
2135;-0.38
2136;-0.375
2137;-0.36
2138;-0.355
2139;-0.35
2140;-0.34
2141;-0.335
2142;-0.34
2143;-0.32
2144;-0.31
2145;-0.31
2146;-0.31
2147;-0.29
2148;-0.255
2149;-0.215
2150;-0.185
2151;-0.15
2152;-0.115
2153;-0.075
2154;-0.05
2155;-0.06
2156;-0.075
2157;-0.12
2158;-0.14
2159;-0.18
2160;-0.19
2161;-0.18
2162;-0.185
2163;-0.205
2164;-0.23
2165;-0.255
2166;-0.265
2167;-0.28
2168;-0.295
2169;-0.315
2170;-0.35
2171;-0.365
2172;-0.365
2173;-0.35
2174;-0.355
2175;-0.38
2176;-0.4
2177;-0.4
2178;-0.38
2179;-0.36
2180;-0.355
2181;-0.365
2182;-0.38
2183;-0.375
2184;-0.39
2185;-0.375
2186;-0.395
2187;-0.45
2188;-0.51
2189;-0.48
2190;-0.34
2191;-0.06
2192;0.31
2193;0.77
2194;1.21
2195;1.575
2196;1.81
2197;1.935
2198;1.965
2199;1.92
2200;1.71
2201;1.33
2202;0.775
2203;0.135
2204;-0.495
2205;-0.79
2206;-0.72
2207;-0.53
2208;-0.44
2209;-0.44
2210;-0.45
2211;-0.44
2212;-0.42
2213;-0.42
2214;-0.43
2215;-0.43
2216;-0.455
2217;-0.445
2218;-0.46
2219;-0.46
2220;-0.47
2221;-0.465
2222;-0.445
2223;-0.445
2224;-0.445
2225;-0.465
2226;-0.46
2227;-0.445
2228;-0.44
2229;-0.465
2230;-0.455
2231;-0.445
2232;-0.43
2233;-0.425
2234;-0.42
2235;-0.41
2236;-0.415
2237;-0.425
2238;-0.415
2239;-0.395
2240;-0.4
2241;-0.41
2242;-0.435
2243;-0.435
2244;-0.4
2245;-0.385
2246;-0.385
2247;-0.395
2248;-0.39
2249;-0.39
2250;-0.36
2251;-0.35
2252;-0.36
2253;-0.385
2254;-0.37
2255;-0.34
2256;-0.325
2257;-0.305
2258;-0.305
2259;-0.295
2260;-0.29
2261;-0.29
2262;-0.275
2263;-0.25
2264;-0.235
2265;-0.245
2266;-0.24
2267;-0.24
2268;-0.2
2269;-0.16
2270;-0.14
2271;-0.135
2272;-0.13
2273;-0.11
2274;-0.09
2275;-0.055
2276;-0.04
2277;-0.04
2278;-0.03
2279;-0.005
2280;0.05
2281;0.085
2282;0.095
2283;0.14
2284;0.14
2285;0.165
2286;0.21
2287;0.27
2288;0.315
2289;0.335
2290;0.33
2291;0.375
2292;0.41
2293;0.45
2294;0.48
2295;0.485
2296;0.51
2297;0.55
2298;0.565
2299;0.59
2300;0.595
2301;0.565
2302;0.555
2303;0.54
2304;0.54
2305;0.535
2306;0.515
2307;0.48
2308;0.445
2309;0.435
2310;0.405
2311;0.375
2312;0.33
2313;0.3
2314;0.24
2315;0.21
2316;0.17
2317;0.17
2318;0.145
2319;0.1
2320;0.04
2321;0.02
2322;0.005
2323;-0.01
2324;-0.035
2325;-0.06
2326;-0.105
2327;-0.13
2328;-0.13
2329;-0.12
2330;-0.12
2331;-0.155
2332;-0.185
2333;-0.195
2334;-0.205
2335;-0.2
2336;-0.225
2337;-0.24
2338;-0.265
2339;-0.285
2340;-0.28
2341;-0.285
2342;-0.27
2343;-0.295
2344;-0.315
2345;-0.33
2346;-0.335
2347;-0.335
2348;-0.345
2349;-0.36
2350;-0.375
2351;-0.375
2352;-0.365
2353;-0.36
2354;-0.345
2355;-0.345
2356;-0.365
2357;-0.37
2358;-0.38
2359;-0.355
2360;-0.325
2361;-0.33
2362;-0.355
2363;-0.365
2364;-0.375
2365;-0.355
2366;-0.35
2367;-0.355
2368;-0.36
2369;-0.345
2370;-0.335
2371;-0.31
2372;-0.325
2373;-0.33
2374;-0.35
2375;-0.34
2376;-0.345
2377;-0.345
2378;-0.345
2379;-0.335
2380;-0.35
2381;-0.36
2382;-0.36
2383;-0.335
2384;-0.33
2385;-0.335
2386;-0.335
2387;-0.33
2388;-0.295
2389;-0.28
2390;-0.3
2391;-0.33
2392;-0.35
2393;-0.33
2394;-0.315
2395;-0.295
2396;-0.315
2397;-0.31
2398;-0.305
2399;-0.295
2400;-0.28
2401;-0.265
2402;-0.255
2403;-0.275
2404;-0.295
2405;-0.325
2406;-0.32
2407;-0.275
2408;-0.265
2409;-0.275
2410;-0.3
2411;-0.315
2412;-0.315
2413;-0.285
2414;-0.26
2415;-0.28
2416;-0.3
2417;-0.325
2418;-0.33
2419;-0.315
2420;-0.325
2421;-0.335
2422;-0.34
2423;-0.35
2424;-0.32
2425;-0.31
2426;-0.305
2427;-0.31
2428;-0.345
2429;-0.325
2430;-0.315
2431;-0.3
2432;-0.305
2433;-0.33
2434;-0.355
2435;-0.33
2436;-0.305
2437;-0.31
2438;-0.315
2439;-0.32
2440;-0.34
2441;-0.355
2442;-0.34
2443;-0.325
2444;-0.315
2445;-0.315
2446;-0.335
2447;-0.335
2448;-0.32
2449;-0.29
2450;-0.25
2451;-0.28
2452;-0.325
2453;-0.33
2454;-0.33
2455;-0.32
2456;-0.315
2457;-0.29
2458;-0.255
2459;-0.25
2460;-0.245
2461;-0.275
2462;-0.27
2463;-0.255
2464;-0.245
2465;-0.21
2466;-0.205
2467;-0.18
2468;-0.165
2469;-0.195
2470;-0.23
2471;-0.255
2472;-0.26
2473;-0.27
2474;-0.26
2475;-0.25
2476;-0.235
2477;-0.225
2478;-0.185
2479;-0.16
2480;-0.125
2481;-0.13
2482;-0.155
2483;-0.18
2484;-0.19
2485;-0.17
2486;-0.155
2487;-0.15
2488;-0.13
2489;-0.115
2490;-0.11
2491;-0.11
2492;-0.125
2493;-0.12
2494;-0.145
2495;-0.145
2496;-0.12
2497;-0.12
2498;-0.1
2499;-0.095
2500;-0.11
2501;-0.135
2502;-0.125
2503;-0.1
2504;-0.095
2505;-0.125
2506;-0.15
2507;-0.155
2508;-0.13
2509;-0.11
2510;-0.1
2511;-0.12
2512;-0.12
2513;-0.12
2514;-0.09
2515;-0.05
2516;-0.04
2517;-0.03
2518;-0.015
2519;-0.015
2520;-0.02
2521;-0.005
2522;0.025
2523;0.05
2524;0.045
2525;0.1
2526;0.17
2527;0.21
2528;0.215
2529;0.2
2530;0.155
2531;0.165
2532;0.195
2533;0.2
2534;0.165
2535;0.115
2536;0.09
2537;0.075
2538;0.065
2539;0.05
2540;0
2541;-0.045
2542;-0.095
2543;-0.09
2544;-0.055
2545;-0.03
2546;-0.05
2547;-0.07
2548;-0.115
2549;-0.155
2550;-0.2
2551;-0.225
2552;-0.22
2553;-0.175
2554;-0.155
2555;-0.15
2556;-0.15
2557;-0.145
2558;-0.165
2559;-0.2
2560;-0.22
2561;-0.235
2562;-0.25
2563;-0.185
2564;-0.02
2565;0.24
2566;0.605
2567;1.09
2568;1.545
2569;1.875
2570;2.03
2571;2.075
2572;2.025
2573;1.91
2574;1.66
2575;1.2
2576;0.56
2577;-0.08
2578;-0.51
2579;-0.47
2580;-0.26
2581;-0.15
2582;-0.17
2583;-0.21
2584;-0.19
2585;-0.17
2586;-0.13
2587;-0.14
2588;-0.12
2589;-0.13
2590;-0.15
2591;-0.175
2592;-0.165
2593;-0.155
2594;-0.16
2595;-0.19
2596;-0.215
2597;-0.215
2598;-0.22
2599;-0.22
2600;-0.24
2601;-0.25
2602;-0.25
2603;-0.23
2604;-0.22
2605;-0.185
2606;-0.165
2607;-0.175
2608;-0.17
2609;-0.15
2610;-0.145
2611;-0.145
2612;-0.19
2613;-0.22
2614;-0.225
2615;-0.22
2616;-0.165
2617;-0.13
2618;-0.145
2619;-0.175
2620;-0.185
2621;-0.17
2622;-0.14
2623;-0.105
2624;-0.11
2625;-0.125
2626;-0.145
2627;-0.155
2628;-0.095
2629;-0.04
2630;0.01
2631;0.04
2632;0.03
2633;0
2634;-0.02
2635;-0.04
2636;-0.07
2637;-0.07
2638;-0.06
2639;-0.005
2640;0.025
2641;0.03
2642;0.055
2643;0.065
2644;0.05
2645;0.07
2646;0.115
2647;0.14
2648;0.16
2649;0.185
2650;0.205
2651;0.255
2652;0.295
2653;0.325
2654;0.355
2655;0.35
2656;0.365
2657;0.41
2658;0.455
2659;0.48
2660;0.5
2661;0.515
2662;0.54
2663;0.57
2664;0.58
2665;0.625
2666;0.635
2667;0.65
2668;0.665
2669;0.69
2670;0.71
2671;0.71
2672;0.71
2673;0.69
2674;0.66
2675;0.635
2676;0.615
2677;0.59
2678;0.565
2679;0.525
2680;0.495
2681;0.465
2682;0.44
2683;0.45
2684;0.435
2685;0.38
2686;0.32
2687;0.315
2688;0.28
2689;0.25
2690;0.21
2691;0.175
2692;0.135
2693;0.125
2694;0.135
2695;0.13
2696;0.1
2697;0.06
2698;0.045
2699;0.045
2700;0.01
2701;-0.025
2702;-0.075
2703;-0.11
2704;-0.13
2705;-0.14
2706;-0.11
2707;-0.08
2708;-0.08
2709;-0.115
2710;-0.155
2711;-0.175
2712;-0.155
2713;-0.11
2714;-0.105
2715;-0.13
2716;-0.16
2717;-0.19
2718;-0.16
2719;-0.15
2720;-0.165
2721;-0.18
2722;-0.19
2723;-0.17
2724;-0.155
2725;-0.155
2726;-0.145
2727;-0.145
2728;-0.155
2729;-0.165
2730;-0.17
2731;-0.14
2732;-0.155
2733;-0.18
2734;-0.21
2735;-0.205
2736;-0.18
2737;-0.145
2738;-0.15
2739;-0.16
2740;-0.2
2741;-0.21
2742;-0.21
2743;-0.16
2744;-0.14
2745;-0.14
2746;-0.155
2747;-0.145
2748;-0.135
2749;-0.12
2750;-0.115
2751;-0.135
2752;-0.15
2753;-0.16
2754;-0.16
2755;-0.155
2756;-0.155
2757;-0.18
2758;-0.195
2759;-0.18
2760;-0.17
2761;-0.14
2762;-0.15
2763;-0.15
2764;-0.17
2765;-0.185
2766;-0.175
2767;-0.17
2768;-0.165
2769;-0.18
2770;-0.215
2771;-0.21
2772;-0.18
2773;-0.175
2774;-0.185
2775;-0.205
2776;-0.19
2777;-0.18
2778;-0.175
2779;-0.21
2780;-0.225
2781;-0.24
2782;-0.25
2783;-0.255
2784;-0.23
2785;-0.225
2786;-0.24
2787;-0.255
2788;-0.255
2789;-0.255
2790;-0.245
2791;-0.25
2792;-0.265
2793;-0.255
2794;-0.295
2795;-0.285
2796;-0.27
2797;-0.26
2798;-0.275
2799;-0.295
2800;-0.32
2801;-0.315
2802;-0.295
2803;-0.28
2804;-0.305
2805;-0.355
2806;-0.4
2807;-0.385
2808;-0.32
2809;-0.27
2810;-0.26
2811;-0.275
2812;-0.31
2813;-0.325
2814;-0.315
2815;-0.285
2816;-0.285
2817;-0.32
2818;-0.355
2819;-0.355
2820;-0.33
2821;-0.31
2822;-0.285
2823;-0.285
2824;-0.295
2825;-0.305
2826;-0.305
2827;-0.295
2828;-0.315
2829;-0.34
2830;-0.37
2831;-0.4
2832;-0.39
2833;-0.375
2834;-0.345
2835;-0.34
2836;-0.355
2837;-0.335
2838;-0.32
2839;-0.305
2840;-0.33
2841;-0.385
2842;-0.395
2843;-0.37
2844;-0.32
2845;-0.275
2846;-0.265
2847;-0.285
2848;-0.32
2849;-0.335
2850;-0.34
2851;-0.335
2852;-0.345
2853;-0.36
2854;-0.37
2855;-0.365
2856;-0.375
2857;-0.39
2858;-0.385
2859;-0.39
2860;-0.4
2861;-0.405
2862;-0.385
2863;-0.36
2864;-0.325
2865;-0.305
2866;-0.315
2867;-0.295
2868;-0.27
2869;-0.255
2870;-0.21
2871;-0.185
2872;-0.18
2873;-0.135
2874;-0.09
2875;-0.01
2876;0.04
2877;0.075
2878;0.05
2879;0.005
2880;-0.04
2881;-0.055
2882;-0.105
2883;-0.165
2884;-0.225
2885;-0.205
2886;-0.165
2887;-0.145
2888;-0.19
2889;-0.28
2890;-0.365
2891;-0.415
2892;-0.395
2893;-0.375
2894;-0.415
2895;-0.46
2896;-0.48
2897;-0.46
2898;-0.445
2899;-0.435
2900;-0.45
2901;-0.42
2902;-0.42
2903;-0.43
2904;-0.495
2905;-0.505
2906;-0.495
2907;-0.495
2908;-0.565
2909;-0.625
2910;-0.615
2911;-0.495
2912;-0.25
2913;0.125
2914;0.58
2915;1.07
2916;1.46
2917;1.705
2918;1.845
2919;1.9
2920;1.83
2921;1.625
2922;1.175
2923;0.535
2924;-0.105
2925;-0.745
2926;-1.035
2927;-0.795
2928;-0.595
2929;-0.57
2930;-0.605
2931;-0.62
2932;-0.59
2933;-0.565
2934;-0.55
2935;-0.55
2936;-0.54
2937;-0.54
2938;-0.53
2939;-0.525
2940;-0.53
2941;-0.55
2942;-0.58
2943;-0.58
2944;-0.61
2945;-0.625
2946;-0.64
2947;-0.645
2948;-0.665
2949;-0.705
2950;-0.725
2951;-0.71
2952;-0.67
2953;-0.645
2954;-0.615
2955;-0.59
2956;-0.555
2957;-0.55
2958;-0.58
2959;-0.6
2960;-0.635
2961;-0.635
2962;-0.64
2963;-0.625
2964;-0.62
2965;-0.61
2966;-0.61
2967;-0.61
2968;-0.595
2969;-0.575
2970;-0.54
2971;-0.53
2972;-0.53
2973;-0.525
2974;-0.525
2975;-0.5
2976;-0.49
2977;-0.495
2978;-0.485
2979;-0.465
2980;-0.475
2981;-0.455
2982;-0.435
2983;-0.38
2984;-0.34
2985;-0.355
2986;-0.41
2987;-0.42
2988;-0.395
2989;-0.34
2990;-0.295
2991;-0.265
2992;-0.25
2993;-0.225
2994;-0.21
2995;-0.2
2996;-0.18
2997;-0.145
2998;-0.11
2999;-0.035
3000;0.015
3001;0.045
3002;0.075
3003;0.105
3004;0.14
3005;0.17
3006;0.2
3007;0.23
3008;0.265
3009;0.295
3010;0.315
3011;0.345
3012;0.375
3013;0.405
3014;0.41
3015;0.38
3016;0.355
3017;0.325
3018;0.305
3019;0.265
3020;0.225
3021;0.195
3022;0.17
3023;0.15
3024;0.125
3025;0.08
3026;0.04
3027;0.01
3028;-0.01
3029;-0.04
3030;-0.09
3031;-0.13
3032;-0.145
3033;-0.2
3034;-0.245
3035;-0.27
3036;-0.275
3037;-0.3
3038;-0.31
3039;-0.33
3040;-0.35
3041;-0.37
3042;-0.39
3043;-0.4
3044;-0.425
3045;-0.46
3046;-0.475
3047;-0.47
3048;-0.465
3049;-0.47
3050;-0.47
3051;-0.485
3052;-0.52
3053;-0.545
3054;-0.56
3055;-0.56
3056;-0.565
3057;-0.57
3058;-0.565
3059;-0.565
3060;-0.56
3061;-0.55
3062;-0.53
3063;-0.525
3064;-0.55
3065;-0.555
3066;-0.56
3067;-0.53
3068;-0.525
3069;-0.515
3070;-0.52
3071;-0.515
3072;-0.51
3073;-0.52
3074;-0.515
3075;-0.5
3076;-0.5
3077;-0.48
3078;-0.465
3079;-0.455
3080;-0.475
3081;-0.49
3082;-0.495
3083;-0.495
3084;-0.485
3085;-0.465
3086;-0.43
3087;-0.42
3088;-0.41
3089;-0.425
3090;-0.45
3091;-0.46
3092;-0.45
3093;-0.43
3094;-0.43
3095;-0.415
3096;-0.41
3097;-0.425
3098;-0.44
3099;-0.465
3100;-0.47
3101;-0.465
3102;-0.44
3103;-0.4
3104;-0.375
3105;-0.4
3106;-0.44
3107;-0.46
3108;-0.46
3109;-0.445
3110;-0.46
3111;-0.43
3112;-0.455
3113;-0.465
3114;-0.455
3115;-0.43
3116;-0.41
3117;-0.435
3118;-0.475
3119;-0.495
3120;-0.47
3121;-0.445
3122;-0.435
3123;-0.44
3124;-0.45
3125;-0.475
3126;-0.485
3127;-0.47
3128;-0.505
3129;-0.51
3130;-0.535
3131;-0.545
3132;-0.53
3133;-0.515
3134;-0.5
3135;-0.49
3136;-0.485
3137;-0.485
3138;-0.485
3139;-0.49
3140;-0.49
3141;-0.515
3142;-0.505
3143;-0.5
3144;-0.48
3145;-0.465
3146;-0.475
3147;-0.47
3148;-0.475
3149;-0.47
3150;-0.475
3151;-0.48
3152;-0.455
3153;-0.485
3154;-0.525
3155;-0.535
3156;-0.515
3157;-0.51
3158;-0.485
3159;-0.495
3160;-0.495
3161;-0.485
3162;-0.495
3163;-0.48
3164;-0.485
3165;-0.495
3166;-0.51
3167;-0.505
3168;-0.46
3169;-0.445
3170;-0.44
3171;-0.455
3172;-0.495
3173;-0.49
3174;-0.485
3175;-0.445
3176;-0.425
3177;-0.435
3178;-0.45
3179;-0.45
3180;-0.395
3181;-0.36
3182;-0.35
3183;-0.345
3184;-0.375
3185;-0.355
3186;-0.35
3187;-0.34
3188;-0.325
3189;-0.27
3190;-0.22
3191;-0.15
3192;-0.1
3193;-0.08
3194;-0.085
3195;-0.11
3196;-0.17
3197;-0.185
3198;-0.205
3199;-0.22
3200;-0.225
3201;-0.275
3202;-0.32
3203;-0.36
3204;-0.38
3205;-0.39
3206;-0.385
3207;-0.38
3208;-0.41
3209;-0.455
3210;-0.48
3211;-0.47
3212;-0.475
3213;-0.465
3214;-0.49
3215;-0.495
3216;-0.485
3217;-0.465
3218;-0.45
3219;-0.445
3220;-0.475
3221;-0.49
3222;-0.5
3223;-0.54
3224;-0.58
3225;-0.595
3226;-0.52
3227;-0.33
3228;0.01
3229;0.505
3230;1.03
3231;1.47
3232;1.72
3233;1.855
3234;1.915
3235;1.885
3236;1.735
3237;1.35
3238;0.71
3239;0.07
3240;-0.57
3241;-1.05
3242;-0.88
3243;-0.675
3244;-0.625
3245;-0.635
3246;-0.625
3247;-0.59
3248;-0.575
3249;-0.56
3250;-0.565
3251;-0.575
3252;-0.56
3253;-0.575
3254;-0.57
3255;-0.58
3256;-0.585
3257;-0.575
3258;-0.555
3259;-0.56
3260;-0.57
3261;-0.595
3262;-0.62
3263;-0.605
3264;-0.6
3265;-0.575
3266;-0.565
3267;-0.555
3268;-0.57
3269;-0.575
3270;-0.555
3271;-0.54
3272;-0.525
3273;-0.53
3274;-0.55
3275;-0.55
3276;-0.535
3277;-0.535
3278;-0.525
3279;-0.505
3280;-0.53
3281;-0.545
3282;-0.53
3283;-0.515
3284;-0.49
3285;-0.48
3286;-0.475
3287;-0.475
3288;-0.465
3289;-0.445
3290;-0.405
3291;-0.385
3292;-0.385
3293;-0.41
3294;-0.425
3295;-0.415
3296;-0.415
3297;-0.39
3298;-0.365
3299;-0.35
3300;-0.32
3301;-0.29
3302;-0.275
3303;-0.285
3304;-0.31
3305;-0.285
3306;-0.255
3307;-0.195
3308;-0.155
3309;-0.12
3310;-0.125
3311;-0.1
3312;-0.065
3313;0.005
3314;0.055
3315;0.08
3316;0.105
3317;0.1
3318;0.095
3319;0.115
3320;0.195
3321;0.23
3322;0.285
3323;0.305
3324;0.345
3325;0.39
3326;0.43
3327;0.445
3328;0.44
3329;0.455
3330;0.465
3331;0.475
3332;0.48
3333;0.45
3334;0.43
3335;0.39
3336;0.37
3337;0.355
3338;0.34
3339;0.31
3340;0.275
3341;0.25
3342;0.225
3343;0.22
3344;0.185
3345;0.135
3346;0.085
3347;0.065
3348;0.04
3349;0.025
3350;-0.03
3351;-0.09
3352;-0.135
3353;-0.135
3354;-0.155
3355;-0.155
3356;-0.175
3357;-0.22
3358;-0.25
3359;-0.27
3360;-0.255
3361;-0.255
3362;-0.27
3363;-0.29
3364;-0.305
3365;-0.335
3366;-0.325
3367;-0.33
3368;-0.36
3369;-0.38
3370;-0.37
3371;-0.355
3372;-0.35
3373;-0.36
3374;-0.38
3375;-0.41
3376;-0.44
3377;-0.435
3378;-0.445
3379;-0.47
3380;-0.49
3381;-0.515
3382;-0.51
3383;-0.495
3384;-0.475
3385;-0.46
3386;-0.445
3387;-0.45
3388;-0.465
3389;-0.495
3390;-0.475
3391;-0.46
3392;-0.445
3393;-0.435
3394;-0.455
3395;-0.445
3396;-0.44
3397;-0.405
3398;-0.415
3399;-0.415
3400;-0.435
3401;-0.45
3402;-0.43
3403;-0.4
3404;-0.4
3405;-0.405
3406;-0.42
3407;-0.42
3408;-0.415
3409;-0.405
3410;-0.39
3411;-0.4
3412;-0.39
3413;-0.375
3414;-0.365
3415;-0.345
3416;-0.34
3417;-0.355
3418;-0.385
3419;-0.38
3420;-0.375
3421;-0.37
3422;-0.355
3423;-0.345
3424;-0.38
3425;-0.39
3426;-0.375
3427;-0.36
3428;-0.355
3429;-0.365
3430;-0.365
3431;-0.355
3432;-0.34
3433;-0.35
3434;-0.37
3435;-0.385
3436;-0.425
3437;-0.405
3438;-0.42
3439;-0.395
3440;-0.39
3441;-0.39
3442;-0.395
3443;-0.41
3444;-0.39
3445;-0.37
3446;-0.38
3447;-0.41
3448;-0.44
3449;-0.455
3450;-0.435
3451;-0.41
3452;-0.41
3453;-0.41
3454;-0.435
3455;-0.455
3456;-0.47
3457;-0.445
3458;-0.42
3459;-0.405
3460;-0.425
3461;-0.445
3462;-0.445
3463;-0.44
3464;-0.425
3465;-0.445
3466;-0.445
3467;-0.43
3468;-0.425
3469;-0.425
3470;-0.44
3471;-0.455
3472;-0.465
3473;-0.48
3474;-0.49
3475;-0.465
3476;-0.45
3477;-0.45
3478;-0.465
3479;-0.455
3480;-0.44
3481;-0.41
3482;-0.435
3483;-0.455
3484;-0.455
3485;-0.46
3486;-0.46
3487;-0.455
3488;-0.475
3489;-0.475
3490;-0.495
3491;-0.495
3492;-0.48
3493;-0.46
3494;-0.44
3495;-0.44
3496;-0.465
3497;-0.47
3498;-0.475
3499;-0.45
3500;-0.455
3501;-0.445
3502;-0.46
3503;-0.47
3504;-0.495
3505;-0.475
3506;-0.445
3507;-0.435
3508;-0.465
3509;-0.47
3510;-0.445
3511;-0.44
3512;-0.46
3513;-0.48
3514;-0.475
3515;-0.465
3516;-0.44
3517;-0.395
3518;-0.39
3519;-0.38
3520;-0.375
3521;-0.34
3522;-0.315
3523;-0.265
3524;-0.245
3525;-0.2
3526;-0.15
3527;-0.115
3528;-0.1
3529;-0.1
3530;-0.1
3531;-0.095
3532;-0.1
3533;-0.145
3534;-0.15
3535;-0.15
3536;-0.185
3537;-0.255
3538;-0.335
3539;-0.37
3540;-0.37
3541;-0.36
3542;-0.355
3543;-0.385
3544;-0.435
3545;-0.46
3546;-0.48
3547;-0.48
3548;-0.45
3549;-0.44
3550;-0.435
3551;-0.46
3552;-0.46
3553;-0.45
3554;-0.45
3555;-0.475
3556;-0.495
3557;-0.51
3558;-0.51
3559;-0.52
3560;-0.565
3561;-0.605
3562;-0.615
3563;-0.54
3564;-0.34
3565;-0.03
3566;0.44
3567;0.95
3568;1.35
3569;1.63
3570;1.79
3571;1.87
3572;1.845
3573;1.75
3574;1.5
3575;1.05
3576;0.41
3577;-0.23
3578;-0.785
3579;-0.855
3580;-0.71
3581;-0.585
3582;-0.59
3583;-0.585
3584;-0.57
3585;-0.545
3586;-0.53
3587;-0.535
3588;-0.545
3589;-0.55
3590;-0.565
3591;-0.59
3592;-0.59
3593;-0.595
3594;-0.59
3595;-0.58
3596;-0.57
3597;-0.575
3598;-0.57
3599;-0.57
3600;-0.555
3601;-0.535
3602;-0.51
3603;-0.52
3604;-0.535
3605;-0.56
3606;-0.57
3607;-0.57
3608;-0.56
3609;-0.555
3610;-0.545
3611;-0.555
3612;-0.52
3613;-0.505
3614;-0.505
3615;-0.52
3616;-0.535
3617;-0.52
3618;-0.51
3619;-0.49
3620;-0.485
3621;-0.495
3622;-0.48
3623;-0.47
3624;-0.445
3625;-0.42
3626;-0.415
3627;-0.435
3628;-0.445
3629;-0.45
3630;-0.425
3631;-0.405
3632;-0.41
3633;-0.405
3634;-0.41
3635;-0.38
3636;-0.375
3637;-0.35
3638;-0.345
3639;-0.35
3640;-0.365
3641;-0.375
3642;-0.33
3643;-0.29
3644;-0.26
3645;-0.25
3646;-0.25
3647;-0.235
3648;-0.195
3649;-0.18
3650;-0.145
3651;-0.13
3652;-0.11
3653;-0.1
3654;-0.07
3655;-0.04
3656;-0.005
3657;0.02
3658;0.03
3659;0.05
3660;0.075
3661;0.11
3662;0.16
3663;0.205
3664;0.23
3665;0.245
3666;0.275
3667;0.325
3668;0.335
3669;0.375
3670;0.39
3671;0.425
3672;0.455
3673;0.49
3674;0.49
3675;0.445
3676;0.365
3677;0.335
3678;0.35
3679;0.37
3680;0.37
3681;0.34
3682;0.315
3683;0.3
3684;0.275
3685;0.25
3686;0.215
3687;0.17
3688;0.12
3689;0.085
3690;0.075
3691;0.055
3692;0.035
3693;-0.005
3694;-0.045
3695;-0.075
3696;-0.085
3697;-0.105
3698;-0.145
3699;-0.175
3700;-0.195
3701;-0.205
3702;-0.21
3703;-0.2
3704;-0.215
3705;-0.235
3706;-0.275
3707;-0.315
3708;-0.34
3709;-0.35
3710;-0.38
3711;-0.4
3712;-0.42
3713;-0.43
3714;-0.42
3715;-0.405
3716;-0.435
3717;-0.465
3718;-0.5
3719;-0.495
3720;-0.465
3721;-0.475
3722;-0.465
3723;-0.47
3724;-0.495
3725;-0.505
3726;-0.505
3727;-0.5
3728;-0.505
3729;-0.51
3730;-0.52
3731;-0.505
3732;-0.5
3733;-0.495
3734;-0.495
3735;-0.49
3736;-0.52
3737;-0.515
3738;-0.53
3739;-0.51
3740;-0.51
3741;-0.51
3742;-0.52
3743;-0.51
3744;-0.475
3745;-0.465
3746;-0.475
3747;-0.47
3748;-0.47
3749;-0.495
3750;-0.51
3751;-0.51
3752;-0.51
3753;-0.53
3754;-0.515
3755;-0.5
3756;-0.495
3757;-0.5
3758;-0.495
3759;-0.485
3760;-0.48
3761;-0.495
3762;-0.485
3763;-0.48
3764;-0.46
3765;-0.465
3766;-0.44
3767;-0.41
3768;-0.39
3769;-0.41
3770;-0.47
3771;-0.555
3772;-0.615
3773;-0.635
3774;-0.605
3775;-0.58
3776;-0.57
3777;-0.555
3778;-0.565
3779;-0.56
3780;-0.525
3781;-0.465
3782;-0.415
3783;-0.415
3784;-0.505
3785;-0.6
3786;-0.615
3787;-0.54
3788;-0.455
3789;-0.38
3790;-0.41
3791;-0.48
3792;-0.525
3793;-0.485
3794;-0.455
3795;-0.545
3796;-0.67
3797;-0.71
3798;-0.665
3799;-0.655
3800;-0.73
3801;-0.81
3802;-0.78
3803;-0.67
3804;-0.64
3805;-0.66
3806;-0.695
3807;-0.74
3808;-0.73
3809;-0.7
3810;-0.675
3811;-0.67
3812;-0.66
3813;-0.66
3814;-0.67
3815;-0.67
3816;-0.675
3817;-0.67
3818;-0.65
3819;-0.635
3820;-0.655
3821;-0.675
3822;-0.665
3823;-0.65
3824;-0.635
3825;-0.66
3826;-0.685
3827;-0.685
3828;-0.67
3829;-0.665
3830;-0.665
3831;-0.675
3832;-0.69
3833;-0.695
3834;-0.68
3835;-0.67
3836;-0.65
3837;-0.665
3838;-0.685
3839;-0.685
3840;-0.665
3841;-0.64
3842;-0.665
3843;-0.7
3844;-0.74
3845;-0.715
3846;-0.68
3847;-0.66
3848;-0.645
3849;-0.655
3850;-0.67
3851;-0.68
3852;-0.675
3853;-0.68
3854;-0.68
3855;-0.675
3856;-0.685
3857;-0.67
3858;-0.695
3859;-0.69
3860;-0.675
3861;-0.66
3862;-0.685
3863;-0.685
3864;-0.675
3865;-0.665
3866;-0.66
3867;-0.665
3868;-0.675
3869;-0.675
3870;-0.67
3871;-0.65
3872;-0.635
3873;-0.64
3874;-0.645
3875;-0.66
3876;-0.65
3877;-0.625
3878;-0.61
3879;-0.61
3880;-0.585
3881;-0.58
3882;-0.545
3883;-0.515
3884;-0.475
3885;-0.43
3886;-0.39
3887;-0.345
3888;-0.325
3889;-0.315
3890;-0.31
3891;-0.325
3892;-0.35
3893;-0.365
3894;-0.365
3895;-0.345
3896;-0.37
3897;-0.42
3898;-0.48
3899;-0.51
3900;-0.51
3901;-0.515
3902;-0.54
3903;-0.56
3904;-0.575
3905;-0.58
3906;-0.575
3907;-0.6
3908;-0.605
3909;-0.645
3910;-0.665
3911;-0.68
3912;-0.655
3913;-0.64
3914;-0.635
3915;-0.615
3916;-0.62
3917;-0.63
3918;-0.63
3919;-0.65
3920;-0.685
3921;-0.73
3922;-0.695
3923;-0.565
3924;-0.3
3925;0.085
3926;0.575
3927;1.055
3928;1.41
3929;1.67
3930;1.84
3931;1.93
3932;1.905
3933;1.75
3934;1.395
3935;0.83
3936;0.19
3937;-0.45
3938;-0.975
3939;-1.025
3940;-0.9
3941;-0.79
3942;-0.77
3943;-0.75
3944;-0.755
3945;-0.745
3946;-0.745
3947;-0.715
3948;-0.69
3949;-0.66
3950;-0.685
3951;-0.69
3952;-0.675
3953;-0.67
3954;-0.66
3955;-0.675
3956;-0.66
3957;-0.67
3958;-0.715
3959;-0.74
3960;-0.725
3961;-0.68
3962;-0.63
3963;-0.615
3964;-0.65
3965;-0.655
3966;-0.68
3967;-0.69
3968;-0.655
3969;-0.66
3970;-0.675
3971;-0.67
3972;-0.65
3973;-0.62
3974;-0.615
3975;-0.635
3976;-0.65
3977;-0.63
3978;-0.61
3979;-0.57
3980;-0.56
3981;-0.585
3982;-0.6
3983;-0.575
3984;-0.545
3985;-0.52
3986;-0.515
3987;-0.545
3988;-0.525
3989;-0.515
3990;-0.505
3991;-0.475
3992;-0.45
3993;-0.455
3994;-0.475
3995;-0.49
3996;-0.475
3997;-0.43
3998;-0.405
3999;-0.4
4000;-0.39
4001;-0.405
4002;-0.37
4003;-0.35
4004;-0.325
4005;-0.33
4006;-0.33
4007;-0.33
4008;-0.29
4009;-0.26
4010;-0.225
4011;-0.225
4012;-0.21
4013;-0.195
4014;-0.165
4015;-0.125
4016;-0.09
4017;-0.085
4018;-0.1
4019;-0.07
4020;-0.01
4021;0.05
4022;0.09
4023;0.085
4024;0.1
4025;0.12
4026;0.175
4027;0.2
4028;0.23
4029;0.255
4030;0.255
4031;0.265
4032;0.275
4033;0.315
4034;0.32
4035;0.325
4036;0.31
4037;0.31
4038;0.29
4039;0.32
4040;0.32
4041;0.31
4042;0.28
4043;0.23
4044;0.17
4045;0.135
4046;0.135
4047;0.155
4048;0.145
4049;0.115
4050;0.05
4051;-0.025
4052;-0.115
4053;-0.155
4054;-0.175
4055;-0.19
4056;-0.2
4057;-0.195
4058;-0.21
4059;-0.25
4060;-0.27
4061;-0.3
4062;-0.305
4063;-0.31
4064;-0.305
4065;-0.33
4066;-0.365
4067;-0.38
4068;-0.37
4069;-0.365
4070;-0.36
4071;-0.395
4072;-0.425
4073;-0.445
4074;-0.445
4075;-0.43
4076;-0.45
4077;-0.455
4078;-0.455
4079;-0.47
4080;-0.465
4081;-0.465
4082;-0.45
4083;-0.46
4084;-0.475
4085;-0.48
4086;-0.465
4087;-0.445
4088;-0.44
4089;-0.46
4090;-0.495
4091;-0.495
4092;-0.475
4093;-0.455
4094;-0.445
4095;-0.44
4096;-0.455
4097;-0.47
4098;-0.47
4099;-0.445
4100;-0.415
4101;-0.42
4102;-0.44
4103;-0.455
4104;-0.43
4105;-0.415
4106;-0.415
4107;-0.42
4108;-0.425
4109;-0.415
4110;-0.38
4111;-0.365
4112;-0.37
4113;-0.355
4114;-0.37
4115;-0.365
4116;-0.355
4117;-0.345
4118;-0.335
4119;-0.34
4120;-0.34
4121;-0.345
4122;-0.335
4123;-0.32
4124;-0.31
4125;-0.32
4126;-0.35
4127;-0.37
4128;-0.355
4129;-0.335
4130;-0.325
4131;-0.345
4132;-0.35
4133;-0.36
4134;-0.365
4135;-0.37
4136;-0.39
4137;-0.37
4138;-0.365
4139;-0.365
4140;-0.37
4141;-0.365
4142;-0.37
4143;-0.365
4144;-0.375
4145;-0.395
4146;-0.39
4147;-0.37
4148;-0.365
4149;-0.375
4150;-0.4
4151;-0.405
4152;-0.4
4153;-0.385
4154;-0.38
4155;-0.4
4156;-0.43
4157;-0.415
4158;-0.42
4159;-0.425
4160;-0.41
4161;-0.41
4162;-0.435
4163;-0.44
4164;-0.42
4165;-0.4
4166;-0.41
4167;-0.435
4168;-0.445
4169;-0.465
4170;-0.45
4171;-0.435
4172;-0.415
4173;-0.415
4174;-0.445
4175;-0.465
4176;-0.46
4177;-0.425
4178;-0.415
4179;-0.425
4180;-0.46
4181;-0.455
4182;-0.435
4183;-0.425
4184;-0.415
4185;-0.42
4186;-0.45
4187;-0.46
4188;-0.445
4189;-0.415
4190;-0.4
4191;-0.41
4192;-0.43
4193;-0.45
4194;-0.47
4195;-0.47
4196;-0.45
4197;-0.42
4198;-0.425
4199;-0.445
4200;-0.44
4201;-0.415
4202;-0.405
4203;-0.43
4204;-0.435
4205;-0.435
4206;-0.43
4207;-0.41
4208;-0.42
4209;-0.4
4210;-0.4
4211;-0.4
4212;-0.415
4213;-0.4
4214;-0.39
4215;-0.405
4216;-0.45
4217;-0.44
4218;-0.41
4219;-0.385
4220;-0.39
4221;-0.41
4222;-0.435
4223;-0.435
4224;-0.395
4225;-0.365
4226;-0.35
4227;-0.33
4228;-0.345
4229;-0.335
4230;-0.32
4231;-0.27
4232;-0.235
4233;-0.22
4234;-0.23
4235;-0.205
4236;-0.17
4237;-0.12
4238;-0.06
4239;-0.035
4240;-0.055
4241;-0.06
4242;-0.05
4243;-0.045
4244;-0.05
4245;-0.05
4246;-0.095
4247;-0.135
4248;-0.175
4249;-0.205
4250;-0.225
4251;-0.25
4252;-0.29
4253;-0.305
4254;-0.305
4255;-0.31
4256;-0.33
4257;-0.335
4258;-0.365
4259;-0.375
4260;-0.36
4261;-0.35
4262;-0.335
4263;-0.345
4264;-0.38
4265;-0.4
4266;-0.395
4267;-0.38
4268;-0.375
4269;-0.405
4270;-0.45
4271;-0.49
4272;-0.53
4273;-0.48
4274;-0.32
4275;-0.055
4276;0.345
4277;0.835
4278;1.3
4279;1.67
4280;1.895
4281;2.05
4282;2.095
4283;2.03
4284;1.855
4285;1.505
4286;0.95
4287;0.31
4288;-0.33
4289;-0.755
4290;-0.675
4291;-0.465
4292;-0.365
4293;-0.395
4294;-0.44
4295;-0.47
4296;-0.45
4297;-0.395
4298;-0.4
4299;-0.395
4300;-0.415
4301;-0.425
4302;-0.435
4303;-0.435
4304;-0.41
4305;-0.43
4306;-0.43
4307;-0.425
4308;-0.4
4309;-0.395
4310;-0.39
4311;-0.43
4312;-0.485
4313;-0.45
4314;-0.4
4315;-0.355
4316;-0.37
4317;-0.405
4318;-0.42
4319;-0.415
4320;-0.39
4321;-0.37
4322;-0.36
4323;-0.35
4324;-0.355
4325;-0.385
4326;-0.41
4327;-0.4
4328;-0.365
4329;-0.34
4330;-0.34
4331;-0.35
4332;-0.335
4333;-0.345
4334;-0.345
4335;-0.325
4336;-0.31
4337;-0.3
4338;-0.295
4339;-0.29
4340;-0.26
4341;-0.25
4342;-0.255
4343;-0.27
4344;-0.26
4345;-0.26
4346;-0.235
4347;-0.215
4348;-0.205
4349;-0.215
4350;-0.215
4351;-0.195
4352;-0.18
4353;-0.16
4354;-0.15
4355;-0.14
4356;-0.11
4357;-0.085
4358;-0.09
4359;-0.06
4360;-0.045
4361;-0.035
4362;-0.015
4363;0.045
4364;0.065
4365;0.09
4366;0.11
4367;0.12
4368;0.165
4369;0.215
4370;0.25
4371;0.285
4372;0.31
4373;0.32
4374;0.35
4375;0.41
4376;0.45
4377;0.47
4378;0.485
4379;0.5
4380;0.54
4381;0.57
4382;0.59
4383;0.595
4384;0.57
4385;0.55
4386;0.57
4387;0.58
4388;0.585
4389;0.585
4390;0.565
4391;0.535
4392;0.535
4393;0.52
4394;0.515
4395;0.46
4396;0.415
4397;0.365
4398;0.335
4399;0.31
4400;0.275
4401;0.255
4402;0.205
4403;0.175
4404;0.15
4405;0.135
4406;0.12
4407;0.07
4408;0.07
4409;0.045
4410;0.04
4411;0.015
4412;-0.02
4413;-0.03
4414;-0.025
4415;-0.06
4416;-0.07
4417;-0.07
4418;-0.095
4419;-0.115
4420;-0.13
4421;-0.135
4422;-0.13
4423;-0.115
4424;-0.12
4425;-0.135
4426;-0.17
4427;-0.18
4428;-0.18
4429;-0.17
4430;-0.15
4431;-0.155
4432;-0.195
4433;-0.22
4434;-0.22
4435;-0.195
4436;-0.19
4437;-0.21
4438;-0.23
4439;-0.23
4440;-0.215
4441;-0.2
4442;-0.215
4443;-0.225
4444;-0.27
4445;-0.28
4446;-0.275
4447;-0.24
4448;-0.225
4449;-0.24
4450;-0.27
4451;-0.26
4452;-0.255
4453;-0.245
4454;-0.24
4455;-0.255
4456;-0.275
4457;-0.28
4458;-0.25
4459;-0.245
4460;-0.255
4461;-0.265
4462;-0.265
4463;-0.265
4464;-0.245
4465;-0.225
4466;-0.225
4467;-0.235
4468;-0.245
4469;-0.245
4470;-0.245
4471;-0.22
4472;-0.225
4473;-0.215
4474;-0.23
4475;-0.215
4476;-0.21
4477;-0.195
4478;-0.195
4479;-0.205
4480;-0.235
4481;-0.245
4482;-0.22
4483;-0.2
4484;-0.2
4485;-0.21
4486;-0.22
4487;-0.23
4488;-0.24
4489;-0.205
4490;-0.21
4491;-0.21
4492;-0.25
4493;-0.255
4494;-0.265
4495;-0.25
4496;-0.23
4497;-0.215
4498;-0.215
4499;-0.235
4500;-0.27
4501;-0.27
4502;-0.235
4503;-0.205
4504;-0.205
4505;-0.22
4506;-0.26
4507;-0.285
4508;-0.3
4509;-0.285
4510;-0.285
4511;-0.3
4512;-0.265
4513;-0.25
4514;-0.26
4515;-0.265
4516;-0.245
4517;-0.25
4518;-0.27
4519;-0.26
4520;-0.25
4521;-0.24
4522;-0.245
4523;-0.27
4524;-0.29
4525;-0.315
4526;-0.315
4527;-0.315
4528;-0.3
4529;-0.295
4530;-0.315
4531;-0.34
4532;-0.33
4533;-0.305
4534;-0.285
4535;-0.285
4536;-0.295
4537;-0.295
4538;-0.275
4539;-0.26
4540;-0.265
4541;-0.275
4542;-0.265
4543;-0.26
4544;-0.275
4545;-0.285
4546;-0.325
4547;-0.32
4548;-0.3
4549;-0.29
4550;-0.295
4551;-0.31
4552;-0.31
4553;-0.3
4554;-0.3
4555;-0.27
4556;-0.26
4557;-0.27
4558;-0.255
4559;-0.245
4560;-0.23
4561;-0.21
4562;-0.17
4563;-0.155
4564;-0.125
4565;-0.125
4566;-0.075
4567;-0.025
4568;0.02
4569;0.045
4570;0.05
4571;0.025
4572;0.03
4573;0.07
4574;0.105
4575;0.08
4576;0.04
4577;0.02
4578;0.005
4579;-0.015
4580;-0.06
4581;-0.115
4582;-0.16
4583;-0.195
4584;-0.2
4585;-0.21
4586;-0.23
4587;-0.26
4588;-0.3
4589;-0.325
4590;-0.365
4591;-0.32
4592;-0.29
4593;-0.285
4594;-0.3
4595;-0.335
4596;-0.325
4597;-0.335
4598;-0.34
4599;-0.335
4600;-0.345
4601;-0.38
4602;-0.445
4603;-0.445
4604;-0.43
4605;-0.335
4606;-0.12
4607;0.245
4608;0.775
4609;1.285
4610;1.7
4611;1.95
4612;2.055
4613;2.065
4614;1.97
4615;1.75
4616;1.275
4617;0.635
4618;-0.005
4619;-0.645
4620;-0.775
4621;-0.6
4622;-0.445
4623;-0.415
4624;-0.47
4625;-0.485
4626;-0.44
4627;-0.435
4628;-0.415
4629;-0.41
4630;-0.435
4631;-0.455
4632;-0.45
4633;-0.44
4634;-0.435
4635;-0.445
4636;-0.445
4637;-0.46
4638;-0.455
4639;-0.43
4640;-0.43
4641;-0.45
4642;-0.47
4643;-0.475
4644;-0.45
4645;-0.415
4646;-0.405
4647;-0.44
4648;-0.515
4649;-0.54
4650;-0.455
4651;-0.42
4652;-0.415
4653;-0.425
4654;-0.44
4655;-0.44
4656;-0.425
4657;-0.415
4658;-0.41
4659;-0.405
4660;-0.41
4661;-0.42
4662;-0.405
4663;-0.39
4664;-0.355
4665;-0.355
4666;-0.37
4667;-0.38
4668;-0.35
4669;-0.33
4670;-0.37
4671;-0.395
4672;-0.38
4673;-0.305
4674;-0.25
4675;-0.265
4676;-0.29
4677;-0.295
4678;-0.32
4679;-0.33
4680;-0.235
4681;-0.215
4682;-0.275
4683;-0.26
4684;-0.23
4685;-0.215
4686;-0.215
4687;-0.155
4688;-0.125
4689;-0.105
4690;-0.105
4691;-0.09
4692;-0.06
4693;-0.025
4694;0.005
4695;0.04
4696;0.04
4697;0.08
4698;0.12
4699;0.14
4700;0.18
4701;0.21
4702;0.23
4703;0.265
4704;0.29
4705;0.32
4706;0.36
4707;0.37
4708;0.39
4709;0.42
4710;0.445
4711;0.46
4712;0.485
4713;0.485
4714;0.45
4715;0.435
4716;0.45
4717;0.455
4718;0.435
4719;0.42
4720;0.385
4721;0.37
4722;0.335
4723;0.315
4724;0.305
4725;0.27
4726;0.22
4727;0.175
4728;0.13
4729;0.11
4730;0.095
4731;0.075
4732;0.04
4733;-0.025
4734;-0.07
4735;-0.06
4736;-0.055
4737;-0.08
4738;-0.15
4739;-0.17
4740;-0.15
4741;-0.16
4742;-0.16
4743;-0.185
4744;-0.22
4745;-0.24
4746;-0.205
4747;-0.2
4748;-0.255
4749;-0.3
4750;-0.315
4751;-0.29
4752;-0.31
4753;-0.34
4754;-0.345
4755;-0.33
4756;-0.33
4757;-0.35
4758;-0.355
4759;-0.345
4760;-0.34
4761;-0.35
4762;-0.365
4763;-0.36
4764;-0.35
4765;-0.335
4766;-0.34
4767;-0.35
4768;-0.37
4769;-0.39
4770;-0.375
4771;-0.36
4772;-0.335
4773;-0.36
4774;-0.36
4775;-0.365
4776;-0.335
4777;-0.325
4778;-0.335
4779;-0.345
4780;-0.355
4781;-0.345
4782;-0.36
4783;-0.35
4784;-0.32
4785;-0.31
4786;-0.305
4787;-0.285
4788;-0.27
4789;-0.265
4790;-0.245
4791;-0.24
4792;-0.24
4793;-0.245
4794;-0.26
4795;-0.25
4796;-0.25
4797;-0.24
4798;-0.27
4799;-0.295
4800;-0.285
4801;-0.26
4802;-0.245
4803;-0.25
4804;-0.28
4805;-0.295
4806;-0.29
4807;-0.275
4808;-0.27
4809;-0.295
4810;-0.315
4811;-0.305
4812;-0.295
4813;-0.27
4814;-0.26
4815;-0.275
4816;-0.29
4817;-0.295
4818;-0.325
4819;-0.31
4820;-0.305
4821;-0.31
4822;-0.31
4823;-0.31
4824;-0.305
4825;-0.315
4826;-0.335
4827;-0.34
4828;-0.36
4829;-0.34
4830;-0.32
4831;-0.32
4832;-0.32
4833;-0.355
4834;-0.36
4835;-0.355
4836;-0.335
4837;-0.335
4838;-0.34
4839;-0.34
4840;-0.35
4841;-0.365
4842;-0.36
4843;-0.345
4844;-0.345
4845;-0.35
4846;-0.38
4847;-0.39
4848;-0.385
4849;-0.36
4850;-0.355
4851;-0.38
4852;-0.385
4853;-0.385
4854;-0.39
4855;-0.405
4856;-0.395
4857;-0.385
4858;-0.365
4859;-0.405
4860;-0.44
4861;-0.415
4862;-0.365
4863;-0.35
4864;-0.4
4865;-0.425
4866;-0.42
4867;-0.395
4868;-0.39
4869;-0.4
4870;-0.41
4871;-0.405
4872;-0.405
4873;-0.405
4874;-0.41
4875;-0.41
4876;-0.405
4877;-0.415
4878;-0.415
4879;-0.415
4880;-0.415
4881;-0.415
4882;-0.43
4883;-0.45
4884;-0.445
4885;-0.415
4886;-0.405
4887;-0.39
4888;-0.42
4889;-0.435
4890;-0.44
4891;-0.42
4892;-0.38
4893;-0.38
4894;-0.4
4895;-0.42
4896;-0.41
4897;-0.385
4898;-0.355
4899;-0.33
4900;-0.325
4901;-0.315
4902;-0.285
4903;-0.26
4904;-0.23
4905;-0.175
4906;-0.12
4907;-0.105
4908;-0.105
4909;-0.105
4910;-0.09
4911;-0.085
4912;-0.115
4913;-0.125
4914;-0.155
4915;-0.2
4916;-0.235
4917;-0.3
4918;-0.335
4919;-0.36
4920;-0.385
4921;-0.39
4922;-0.41
4923;-0.45
4924;-0.485
4925;-0.51
4926;-0.495
4927;-0.485
4928;-0.47
4929;-0.47
4930;-0.485
4931;-0.505
4932;-0.5
4933;-0.49
4934;-0.49
4935;-0.51
4936;-0.57
4937;-0.63
4938;-0.66
4939;-0.66
4940;-0.565
4941;-0.315
4942;0.085
4943;0.655
4944;1.22
4945;1.66
4946;1.925
4947;2.045
4948;2.025
4949;1.92
4950;1.605
4951;1.065
4952;0.425
4953;-0.215
4954;-0.855
4955;-0.81
4956;-0.63
4957;-0.555
4958;-0.58
4959;-0.595
4960;-0.6
4961;-0.58
4962;-0.57
4963;-0.585
4964;-0.595
4965;-0.615
4966;-0.625
4967;-0.625
4968;-0.63
4969;-0.61
4970;-0.605
4971;-0.61
4972;-0.63
4973;-0.645
4974;-0.63
4975;-0.625
4976;-0.61
4977;-0.615
4978;-0.63
4979;-0.65
4980;-0.64
4981;-0.62
4982;-0.595
4983;-0.615
4984;-0.61
4985;-0.595
4986;-0.575
4987;-0.56
4988;-0.565
4989;-0.575
4990;-0.59
4991;-0.59
4992;-0.58
4993;-0.57
4994;-0.55
4995;-0.555
4996;-0.565
4997;-0.575
4998;-0.565
4999;-0.535
5000;-0.51
5001;-0.51
5002;-0.52
5003;-0.51
5004;-0.5
5005;-0.495
5006;-0.475
5007;-0.455
5008;-0.46
5009;-0.435
5010;-0.43
5011;-0.415
5012;-0.39
5013;-0.375
5014;-0.365
5015;-0.35
5016;-0.34
5017;-0.31
5018;-0.29
5019;-0.265
5020;-0.255
5021;-0.235
5022;-0.19
5023;-0.16
5024;-0.135
5025;-0.11
5026;-0.115
5027;-0.095
5028;-0.04
5029;0.005
5030;0.025
5031;0.05
5032;0.07
5033;0.095
5034;0.135
5035;0.175
5036;0.21
5037;0.22
5038;0.225
5039;0.215
5040;0.25
5041;0.27
5042;0.295
5043;0.285
5044;0.255
5045;0.22
5046;0.22
5047;0.255
5048;0.25
5049;0.215
5050;0.165
5051;0.13
5052;0.12
5053;0.105
5054;0.08
5055;0.055
5056;-0.015
5057;-0.055
5058;-0.085
5059;-0.09
5060;-0.09
5061;-0.135
5062;-0.18
5063;-0.22
5064;-0.235
5065;-0.235
5066;-0.255
5067;-0.295
5068;-0.335
5069;-0.355
5070;-0.335
5071;-0.355
5072;-0.365
5073;-0.39
5074;-0.41
5075;-0.435
5076;-0.435
5077;-0.41
5078;-0.395
5079;-0.425
5080;-0.455
5081;-0.46
5082;-0.465
5083;-0.45
5084;-0.46
5085;-0.455
5086;-0.455
5087;-0.47
5088;-0.46
5089;-0.46
5090;-0.455
5091;-0.47
5092;-0.465
5093;-0.47
5094;-0.455
5095;-0.44
5096;-0.45
5097;-0.46
5098;-0.475
5099;-0.47
5100;-0.46
5101;-0.445
5102;-0.435
5103;-0.435
5104;-0.445
5105;-0.44
5106;-0.445
5107;-0.43
5108;-0.41
5109;-0.415
5110;-0.42
5111;-0.435
5112;-0.42
5113;-0.4
5114;-0.39
5115;-0.4
5116;-0.4
5117;-0.41
5118;-0.4
5119;-0.39
5120;-0.38
5121;-0.395
5122;-0.4
5123;-0.4
5124;-0.37
5125;-0.345
5126;-0.35
5127;-0.39
5128;-0.39
5129;-0.375
5130;-0.37
5131;-0.35
5132;-0.355
5133;-0.36
5134;-0.38
5135;-0.395
5136;-0.385
5137;-0.365
5138;-0.365
5139;-0.375
5140;-0.38
5141;-0.385
5142;-0.38
5143;-0.375
5144;-0.37
5145;-0.375
5146;-0.38
5147;-0.405
5148;-0.39
5149;-0.38
5150;-0.35
5151;-0.375
5152;-0.39
5153;-0.395
5154;-0.39
5155;-0.385
5156;-0.375
5157;-0.38
5158;-0.4
5159;-0.405
5160;-0.395
5161;-0.375
5162;-0.355
5163;-0.36
5164;-0.38
5165;-0.405
5166;-0.38
5167;-0.36
5168;-0.355
5169;-0.35
5170;-0.365
5171;-0.395
5172;-0.39
5173;-0.375
5174;-0.35
5175;-0.35
5176;-0.355
5177;-0.36
5178;-0.365
5179;-0.375
5180;-0.365
5181;-0.345
5182;-0.345
5183;-0.36
5184;-0.355
5185;-0.345
5186;-0.335
5187;-0.33
5188;-0.34
5189;-0.375
5190;-0.36
5191;-0.335
5192;-0.32
5193;-0.33
5194;-0.35
5195;-0.335
5196;-0.34
5197;-0.315
5198;-0.285
5199;-0.275
5200;-0.295
5201;-0.295
5202;-0.275
5203;-0.23
5204;-0.215
5205;-0.21
5206;-0.19
5207;-0.185
5208;-0.175
5209;-0.155
5210;-0.12
5211;-0.05
5212;0
5213;0.015
5214;0.025
5215;0.035
5216;0.05
5217;0.05
5218;0.025
5219;0.005
5220;0
5221;-0.03
5222;-0.075
5223;-0.12
5224;-0.155
5225;-0.17
5226;-0.175
5227;-0.195
5228;-0.23
5229;-0.27
5230;-0.305
5231;-0.31
5232;-0.29
5233;-0.285
5234;-0.295
5235;-0.31
5236;-0.325
5237;-0.33
5238;-0.32
5239;-0.32
5240;-0.29
5241;-0.29
5242;-0.325
5243;-0.35
5244;-0.37
5245;-0.375
5246;-0.35
5247;-0.285
5248;-0.13
5249;0.195
5250;0.69
5251;1.215
5252;1.665
5253;1.935
5254;2.07
5255;2.1
5256;2.05
5257;1.895
5258;1.53
5259;0.94
5260;0.3
5261;-0.34
5262;-0.75
5263;-0.605
5264;-0.395
5265;-0.355
5266;-0.39
5267;-0.44
5268;-0.41
5269;-0.385
5270;-0.36
5271;-0.365
5272;-0.4
5273;-0.4
5274;-0.39
5275;-0.385
5276;-0.365
5277;-0.37
5278;-0.4
5279;-0.425
5280;-0.395
5281;-0.375
5282;-0.37
5283;-0.37
5284;-0.375
5285;-0.385
5286;-0.365
5287;-0.355
5288;-0.355
5289;-0.37
5290;-0.365
5291;-0.355
5292;-0.355
5293;-0.35
5294;-0.33
5295;-0.32
5296;-0.345
5297;-0.35
5298;-0.345
5299;-0.335
5300;-0.31
5301;-0.305
5302;-0.305
5303;-0.315
5304;-0.305
5305;-0.285
5306;-0.26
5307;-0.27
5308;-0.28
5309;-0.275
5310;-0.265
5311;-0.245
5312;-0.235
5313;-0.23
5314;-0.23
5315;-0.23
5316;-0.21
5317;-0.185
5318;-0.165
5319;-0.165
5320;-0.165
5321;-0.165
5322;-0.14
5323;-0.115
5324;-0.08
5325;-0.06
5326;-0.03
5327;-0.01
5328;0.035
5329;0.055
5330;0.035
5331;0.015
5332;0.035
5333;0.095
5334;0.145
5335;0.185
5336;0.21
5337;0.24
5338;0.26
5339;0.285
5340;0.325
5341;0.37
5342;0.41
5343;0.435
5344;0.435
5345;0.45
5346;0.475
5347;0.485
5348;0.51
5349;0.5
5350;0.5
5351;0.5
5352;0.535
5353;0.52
5354;0.49
5355;0.435
5356;0.42
5357;0.39
5358;0.39
5359;0.38
5360;0.35
5361;0.315
5362;0.275
5363;0.24
5364;0.21
5365;0.195
5366;0.185
5367;0.12
5368;0.07
5369;0.025
5370;0.015
5371;0.015
5372;0.005
5373;-0.04
5374;-0.08
5375;-0.1
5376;-0.105
5377;-0.11
5378;-0.105
5379;-0.125
5380;-0.17
5381;-0.2
5382;-0.2
5383;-0.205
5384;-0.19
5385;-0.22
5386;-0.265
5387;-0.295
5388;-0.28
5389;-0.27
5390;-0.255
5391;-0.26
5392;-0.29
5393;-0.31
5394;-0.3
5395;-0.275
5396;-0.27
5397;-0.29
5398;-0.295
5399;-0.315
5400;-0.315
5401;-0.285
5402;-0.275
5403;-0.285
5404;-0.285
5405;-0.29
5406;-0.285
5407;-0.27
5408;-0.26
5409;-0.265
5410;-0.275
5411;-0.27
5412;-0.26
5413;-0.245
5414;-0.235
5415;-0.22
5416;-0.235
5417;-0.22
5418;-0.215
5419;-0.195
5420;-0.195
5421;-0.205
5422;-0.2
5423;-0.205
5424;-0.195
5425;-0.19
5426;-0.2
5427;-0.21
5428;-0.205
5429;-0.225
5430;-0.225
5431;-0.21
5432;-0.195
5433;-0.195
5434;-0.215
5435;-0.23
5436;-0.235
5437;-0.22
5438;-0.205
5439;-0.215
5440;-0.225
5441;-0.255
5442;-0.235
5443;-0.23
5444;-0.24
5445;-0.24
5446;-0.245
5447;-0.26
5448;-0.265
5449;-0.26
5450;-0.25
5451;-0.26
5452;-0.285
5453;-0.295
5454;-0.295
5455;-0.275
5456;-0.265
5457;-0.27
5458;-0.285
5459;-0.29
5460;-0.295
5461;-0.285
5462;-0.265
5463;-0.27
5464;-0.285
5465;-0.285
5466;-0.27
5467;-0.27
5468;-0.29
5469;-0.33
5470;-0.335
5471;-0.32
5472;-0.295
5473;-0.305
5474;-0.29
5475;-0.295
5476;-0.305
5477;-0.325
5478;-0.32
5479;-0.32
5480;-0.305
5481;-0.305
5482;-0.33
5483;-0.335
5484;-0.345
5485;-0.325
5486;-0.315
5487;-0.31
5488;-0.325
5489;-0.355
5490;-0.335
5491;-0.32
5492;-0.31
5493;-0.32
5494;-0.335
5495;-0.34
5496;-0.335
5497;-0.33
5498;-0.31
5499;-0.325
5500;-0.345
5501;-0.345
5502;-0.335
5503;-0.31
5504;-0.29
5505;-0.275
5506;-0.27
5507;-0.29
5508;-0.24
5509;-0.2
5510;-0.195
5511;-0.175
5512;-0.165
5513;-0.14
5514;-0.085
5515;-0.055
5516;-0.03
5517;-0.015
5518;-0.01
5519;-0.03
5520;-0.025
5521;-0.02
5522;0.005
5523;-0.005
5524;-0.065
5525;-0.145
5526;-0.195
5527;-0.22
5528;-0.22
5529;-0.225
5530;-0.275
5531;-0.33
5532;-0.34
5533;-0.35
5534;-0.34
5535;-0.345
5536;-0.35
5537;-0.38
5538;-0.39
5539;-0.39
5540;-0.39
5541;-0.375
5542;-0.38
5543;-0.395
5544;-0.395
5545;-0.405
5546;-0.42
5547;-0.48
5548;-0.555
5549;-0.59
5550;-0.53
5551;-0.38
5552;-0.07
5553;0.395
5554;0.955
5555;1.475
5556;1.87
5557;2.09
5558;2.155
5559;2.12
5560;1.97
5561;1.66
5562;1.13
5563;0.49
5564;-0.15
5565;-0.72
5566;-0.685
5567;-0.49
5568;-0.405
5569;-0.415
5570;-0.43
5571;-0.425
5572;-0.44
5573;-0.46
5574;-0.465
5575;-0.48
5576;-0.455
5577;-0.46
5578;-0.48
5579;-0.49
5580;-0.485
5581;-0.495
5582;-0.48
5583;-0.475
5584;-0.5
5585;-0.51
5586;-0.52
5587;-0.51
5588;-0.49
5589;-0.485
5590;-0.49
5591;-0.49
5592;-0.495
5593;-0.475
5594;-0.465
5595;-0.49
5596;-0.5
5597;-0.505
5598;-0.5
5599;-0.46
5600;-0.435
5601;-0.435
5602;-0.445
5603;-0.47
5604;-0.47
5605;-0.44
5606;-0.4
5607;-0.4
5608;-0.43
5609;-0.44
5610;-0.425
5611;-0.4
5612;-0.375
5613;-0.385
5614;-0.39
5615;-0.38
5616;-0.365
5617;-0.345
5618;-0.33
5619;-0.32
5620;-0.335
5621;-0.315
5622;-0.315
5623;-0.31
5624;-0.275
5625;-0.26
5626;-0.275
5627;-0.265
5628;-0.24
5629;-0.215
5630;-0.2
5631;-0.155
5632;-0.155
5633;-0.15
5634;-0.14
5635;-0.1
5636;-0.085
5637;-0.05
5638;-0.035
5639;-0.015
5640;0.015
5641;0.05
5642;0.075
5643;0.105
5644;0.11
5645;0.135
5646;0.16
5647;0.185
5648;0.215
5649;0.23
5650;0.23
5651;0.245
5652;0.26
5653;0.275
5654;0.3
5655;0.295
5656;0.28
5657;0.285
5658;0.28
5659;0.29
5660;0.28
5661;0.25
5662;0.23
5663;0.2
5664;0.2
5665;0.185
5666;0.175
5667;0.135
5668;0.105
5669;0.06
5670;0.045
5671;0.02
5672;0
5673;-0.03
5674;-0.07
5675;-0.1
5676;-0.125
5677;-0.15
5678;-0.145
5679;-0.165
5680;-0.2
5681;-0.235
5682;-0.23
5683;-0.22
5684;-0.21
5685;-0.23
5686;-0.25
5687;-0.28
5688;-0.29
5689;-0.295
5690;-0.28
5691;-0.27
5692;-0.295
5693;-0.32
5694;-0.325
5695;-0.31
5696;-0.295
5697;-0.29
5698;-0.315
5699;-0.335
5700;-0.31
5701;-0.31
5702;-0.3
5703;-0.285
5704;-0.305
5705;-0.295
5706;-0.315
5707;-0.305
5708;-0.28
5709;-0.28
5710;-0.28
5711;-0.28
5712;-0.285
5713;-0.28
5714;-0.26
5715;-0.265
5716;-0.28
5717;-0.28
5718;-0.265
5719;-0.255
5720;-0.23
5721;-0.245
5722;-0.25
5723;-0.265
5724;-0.26
5725;-0.245
5726;-0.23
5727;-0.24
5728;-0.245
5729;-0.235
5730;-0.24
5731;-0.24
5732;-0.22
5733;-0.235
5734;-0.245
5735;-0.265
5736;-0.25
5737;-0.23
5738;-0.225
5739;-0.21
5740;-0.225
5741;-0.24
5742;-0.25
5743;-0.24
5744;-0.235
5745;-0.23
5746;-0.225
5747;-0.225
5748;-0.225
5749;-0.22
5750;-0.235
5751;-0.255
5752;-0.285
5753;-0.285
5754;-0.27
5755;-0.27
5756;-0.29
5757;-0.29
5758;-0.295
5759;-0.32
5760;-0.325
5761;-0.32
5762;-0.285
5763;-0.29
5764;-0.32
5765;-0.32
5766;-0.305
5767;-0.305
5768;-0.3
5769;-0.295
5770;-0.315
5771;-0.32
5772;-0.315
5773;-0.305
5774;-0.28
5775;-0.29
5776;-0.275
5777;-0.285
5778;-0.28
5779;-0.275
5780;-0.28
5781;-0.285
5782;-0.3
5783;-0.32
5784;-0.32
5785;-0.31
5786;-0.295
5787;-0.295
5788;-0.27
5789;-0.285
5790;-0.32
5791;-0.32
5792;-0.315
5793;-0.295
5794;-0.29
5795;-0.305
5796;-0.305
5797;-0.3
5798;-0.285
5799;-0.275
5800;-0.28
5801;-0.27
5802;-0.29
5803;-0.29
5804;-0.28
5805;-0.28
5806;-0.285
5807;-0.305
5808;-0.315
5809;-0.28
5810;-0.22
5811;-0.205
5812;-0.205
5813;-0.21
5814;-0.185
5815;-0.16
5816;-0.13
5817;-0.11
5818;-0.09
5819;-0.02
5820;0.025
5821;0.045
5822;0.05
5823;0.035
5824;0.035
5825;0.015
5826;0.03
5827;0.03
5828;0.035
5829;-0.02
5830;-0.085
5831;-0.125
5832;-0.165
5833;-0.165
5834;-0.18
5835;-0.23
5836;-0.265
5837;-0.315
5838;-0.34
5839;-0.315
5840;-0.3
5841;-0.32
5842;-0.345
5843;-0.345
5844;-0.355
5845;-0.335
5846;-0.3
5847;-0.3
5848;-0.32
5849;-0.34
5850;-0.37
5851;-0.39
5852;-0.445
5853;-0.5
5854;-0.51
5855;-0.425
5856;-0.205
5857;0.17
5858;0.685
5859;1.22
5860;1.645
5861;1.92
5862;2.06
5863;2.115
5864;2.07
5865;1.91
5866;1.59
5867;1.035
5868;0.395
5869;-0.245
5870;-0.68
5871;-0.63
5872;-0.48
5873;-0.405
5874;-0.415
5875;-0.425
5876;-0.4
5877;-0.4
5878;-0.4
5879;-0.43
5880;-0.445
5881;-0.445
5882;-0.425
5883;-0.43
5884;-0.44
5885;-0.45
5886;-0.445
5887;-0.445
5888;-0.44
5889;-0.445
5890;-0.46
5891;-0.46
5892;-0.455
5893;-0.445
5894;-0.43
5895;-0.425
5896;-0.43
5897;-0.45
5898;-0.45
5899;-0.44
5900;-0.43
5901;-0.425
5902;-0.425
5903;-0.455
5904;-0.44
5905;-0.445
5906;-0.42
5907;-0.415
5908;-0.415
5909;-0.42
5910;-0.415
5911;-0.405
5912;-0.39
5913;-0.39
5914;-0.395
5915;-0.39
5916;-0.385
5917;-0.37
5918;-0.36
5919;-0.355
5920;-0.355
5921;-0.375
5922;-0.36
5923;-0.365
5924;-0.34
5925;-0.315
5926;-0.32
5927;-0.315
5928;-0.295
5929;-0.285
5930;-0.255
5931;-0.255
5932;-0.27
5933;-0.275
5934;-0.255
5935;-0.24
5936;-0.21
5937;-0.2
5938;-0.185
5939;-0.18
5940;-0.17
5941;-0.135
5942;-0.105
5943;-0.105
5944;-0.095
5945;-0.11
5946;-0.075
5947;-0.02
5948;-0.01
5949;0.015
5950;0.015
5951;0.02
5952;0.045
5953;0.085
5954;0.13
5955;0.135
5956;0.145
5957;0.16
5958;0.18
5959;0.205
5960;0.24
5961;0.24
5962;0.25
5963;0.24
5964;0.255
5965;0.275
5966;0.31
5967;0.31
5968;0.29
5969;0.275
5970;0.28
5971;0.29
5972;0.295
5973;0.26
5974;0.245
5975;0.19
5976;0.155
5977;0.115
5978;0.115
5979;0.12
5980;0.12
5981;0.075
5982;0.06
5983;0.06
5984;0.065
5985;0.01
5986;-0.055
5987;-0.125
5988;-0.14
5989;-0.11
5990;-0.075
5991;-0.1
5992;-0.15
5993;-0.18
5994;-0.18
5995;-0.16
5996;-0.16
5997;-0.18
5998;-0.2
5999;-0.245
6000;-0.25
6001;-0.24
6002;-0.215
6003;-0.225
6004;-0.245
6005;-0.27
6006;-0.285
6007;-0.285
6008;-0.265
6009;-0.27
6010;-0.285
6011;-0.28
6012;-0.275
6013;-0.28
6014;-0.295
6015;-0.29
6016;-0.255
6017;-0.26
6018;-0.245
6019;-0.25
6020;-0.265
6021;-0.27
6022;-0.275
6023;-0.27
6024;-0.27
6025;-0.27
6026;-0.265
6027;-0.245
6028;-0.225
6029;-0.235
6030;-0.24
6031;-0.215
6032;-0.19
6033;-0.2
6034;-0.205
6035;-0.22
6036;-0.235
6037;-0.22
6038;-0.205
6039;-0.2
6040;-0.22
6041;-0.225
6042;-0.225
6043;-0.205
6044;-0.19
6045;-0.19
6046;-0.21
6047;-0.23
6048;-0.215
6049;-0.205
6050;-0.195
6051;-0.205
6052;-0.205
6053;-0.23
6054;-0.225
6055;-0.21
6056;-0.215
6057;-0.21
6058;-0.235
6059;-0.235
6060;-0.25
6061;-0.23
6062;-0.24
6063;-0.245
6064;-0.25
6065;-0.275
6066;-0.27
6067;-0.25
6068;-0.245
6069;-0.25
6070;-0.285
6071;-0.29
6072;-0.275
6073;-0.27
6074;-0.26
6075;-0.275
6076;-0.31
6077;-0.305
6078;-0.29
6079;-0.27
6080;-0.265
6081;-0.3
6082;-0.33
6083;-0.32
6084;-0.3
6085;-0.28
6086;-0.29
6087;-0.305
6088;-0.335
6089;-0.355
6090;-0.345
6091;-0.315
6092;-0.295
6093;-0.3
6094;-0.325
6095;-0.335
6096;-0.345
6097;-0.31
6098;-0.29
6099;-0.3
6100;-0.33
6101;-0.345
6102;-0.335
6103;-0.32
6104;-0.31
6105;-0.32
6106;-0.32
6107;-0.33
6108;-0.34
6109;-0.325
6110;-0.31
6111;-0.325
6112;-0.32
6113;-0.33
6114;-0.325
6115;-0.305
6116;-0.3
6117;-0.295
6118;-0.3
6119;-0.315
6120;-0.305
6121;-0.28
6122;-0.25
6123;-0.23
6124;-0.225
6125;-0.22
6126;-0.22
6127;-0.18
6128;-0.145
6129;-0.115
6130;-0.08
6131;-0.03
6132;0
6133;0.035
6134;0.04
6135;0.035
6136;0.03
6137;0.04
6138;0.06
6139;0.045
6140;0.005
6141;-0.085
6142;-0.175
6143;-0.2
6144;-0.195
6145;-0.215
6146;-0.23
6147;-0.26
6148;-0.295
6149;-0.35
6150;-0.37
6151;-0.36
6152;-0.345
6153;-0.345
6154;-0.355
6155;-0.365
6156;-0.355
6157;-0.36
6158;-0.34
6159;-0.34
6160;-0.355
6161;-0.38
6162;-0.415
6163;-0.455
6164;-0.51
6165;-0.53
6166;-0.475
6167;-0.33
6168;-0.065
6169;0.385
6170;0.915
6171;1.415
6172;1.755
6173;1.965
6174;2.055
6175;2.065
6176;1.985
6177;1.75
6178;1.3
6179;0.66
6180;0.02
6181;-0.61
6182;-0.7
6183;-0.56
6184;-0.455
6185;-0.44
6186;-0.44
6187;-0.415
6188;-0.385
6189;-0.385
6190;-0.405
6191;-0.415
6192;-0.44
6193;-0.445
6194;-0.425
6195;-0.425
6196;-0.44
6197;-0.475
6198;-0.465
6199;-0.445
6200;-0.4
6201;-0.4
6202;-0.43
6203;-0.495
6204;-0.51
6205;-0.47
6206;-0.405
6207;-0.395
6208;-0.42
6209;-0.435
6210;-0.445
6211;-0.435
6212;-0.43
6213;-0.455
6214;-0.465
6215;-0.465
6216;-0.445
6217;-0.445
6218;-0.44
6219;-0.425
6220;-0.42
6221;-0.42
6222;-0.415
6223;-0.415
6224;-0.41
6225;-0.405
6226;-0.41
6227;-0.425
6228;-0.41
6229;-0.395
6230;-0.375
6231;-0.375
6232;-0.37
6233;-0.38
6234;-0.36
6235;-0.35
6236;-0.325
6237;-0.32
6238;-0.335
6239;-0.345
6240;-0.345
6241;-0.31
6242;-0.285
6243;-0.27
6244;-0.28
6245;-0.25
6246;-0.225
6247;-0.2
6248;-0.165
6249;-0.155
6250;-0.16
6251;-0.2
6252;-0.205
6253;-0.175
6254;-0.135
6255;-0.11
6256;-0.115
6257;-0.13
6258;-0.105
6259;-0.08
6260;-0.035
6261;-0.01
6262;-0.025
6263;-0.01
6264;0.035
6265;0.06
6266;0.1
6267;0.115
6268;0.105
6269;0.12
6270;0.145
6271;0.18
6272;0.19
6273;0.2
6274;0.175
6275;0.175
6276;0.185
6277;0.19
6278;0.205
6279;0.185
6280;0.16
6281;0.145
6282;0.15
6283;0.16
6284;0.14
6285;0.115
6286;0.075
6287;0.035
6288;0.035
6289;0.025
6290;0
6291;-0.025
6292;-0.035
6293;-0.065
6294;-0.08
6295;-0.09
6296;-0.095
6297;-0.115
6298;-0.145
6299;-0.175
6300;-0.19
6301;-0.2
6302;-0.235
6303;-0.255
6304;-0.265
6305;-0.27
6306;-0.265
6307;-0.285
6308;-0.27
6309;-0.31
6310;-0.335
6311;-0.345
6312;-0.33
6313;-0.305
6314;-0.305
6315;-0.305
6316;-0.295
6317;-0.305
6318;-0.32
6319;-0.315
6320;-0.315
6321;-0.31
6322;-0.315
6323;-0.355
6324;-0.35
6325;-0.335
6326;-0.31
6327;-0.3
6328;-0.31
6329;-0.34
6330;-0.325
6331;-0.32
6332;-0.305
6333;-0.31
6334;-0.315
6335;-0.315
6336;-0.325
6337;-0.305
6338;-0.285
6339;-0.29
6340;-0.295
6341;-0.3
6342;-0.305
6343;-0.28
6344;-0.245
6345;-0.275
6346;-0.32
6347;-0.32
6348;-0.29
6349;-0.275
6350;-0.27
6351;-0.285
6352;-0.29
6353;-0.29
6354;-0.3
6355;-0.285
6356;-0.27
6357;-0.27
6358;-0.275
6359;-0.31
6360;-0.295
6361;-0.29
6362;-0.29
6363;-0.295
6364;-0.305
6365;-0.33
6366;-0.355
6367;-0.35
6368;-0.315
6369;-0.31
6370;-0.31
6371;-0.31
6372;-0.305
6373;-0.31
6374;-0.3
6375;-0.31
6376;-0.335
6377;-0.37
6378;-0.37
6379;-0.34
6380;-0.35
6381;-0.365
6382;-0.365
6383;-0.375
6384;-0.38
6385;-0.35
6386;-0.33
6387;-0.335
6388;-0.35
6389;-0.365
6390;-0.355
6391;-0.325
6392;-0.335
6393;-0.345
6394;-0.36
6395;-0.365
6396;-0.355
6397;-0.33
6398;-0.345
6399;-0.36
6400;-0.355
6401;-0.35
6402;-0.335
6403;-0.335
6404;-0.32
6405;-0.34
6406;-0.385
6407;-0.41
6408;-0.395
6409;-0.37
6410;-0.35
6411;-0.33
6412;-0.35
6413;-0.375
6414;-0.365
6415;-0.355
6416;-0.33
6417;-0.31
6418;-0.305
6419;-0.31
6420;-0.3
6421;-0.28
6422;-0.22
6423;-0.19
6424;-0.195
6425;-0.21
6426;-0.235
6427;-0.2
6428;-0.115
6429;-0.055
6430;-0.045
6431;-0.075
6432;-0.07
6433;-0.06
6434;-0.035
6435;-0.055
6436;-0.08
6437;-0.125
6438;-0.15
6439;-0.17
6440;-0.19
6441;-0.23
6442;-0.25
6443;-0.28
6444;-0.3
6445;-0.33
6446;-0.325
6447;-0.335
6448;-0.355
6449;-0.385
6450;-0.38
6451;-0.36
6452;-0.345
6453;-0.355
6454;-0.395
6455;-0.435
6456;-0.42
6457;-0.385
6458;-0.365
6459;-0.385
6460;-0.4
6461;-0.435
6462;-0.43
6463;-0.4
6464;-0.32
6465;-0.19
6466;0.055
6467;0.425
6468;0.9
6469;1.315
6470;1.65
6471;1.85
6472;1.925
6473;1.9
6474;1.8
6475;1.56
6476;1.115
6477;0.5
6478;-0.14
6479;-0.665
6480;-0.78
6481;-0.69
6482;-0.565
6483;-0.525
6484;-0.56
6485;-0.565
6486;-0.54
6487;-0.5
6488;-0.46
6489;-0.435
6490;-0.455
6491;-0.475
6492;-0.505
6493;-0.505
6494;-0.485
6495;-0.475
6496;-0.485
6497;-0.495
6498;-0.495
6499;-0.47
6500;-0.445
6501;-0.435
6502;-0.43
6503;-0.435
6504;-0.45
6505;-0.465
6506;-0.475
6507;-0.465
6508;-0.445
6509;-0.445
6510;-0.46
6511;-0.46
6512;-0.425
6513;-0.425
6514;-0.415
6515;-0.43
6516;-0.43
6517;-0.44
6518;-0.445
6519;-0.425
6520;-0.415
6521;-0.42
6522;-0.45
6523;-0.44
6524;-0.415
6525;-0.37
6526;-0.37
6527;-0.39
6528;-0.39
6529;-0.365
6530;-0.35
6531;-0.35
6532;-0.355
6533;-0.355
6534;-0.345
6535;-0.33
6536;-0.315
6537;-0.32
6538;-0.335
6539;-0.34
6540;-0.315
6541;-0.28
6542;-0.24
6543;-0.235
6544;-0.25
6545;-0.25
6546;-0.22
6547;-0.215
6548;-0.21
6549;-0.205
6550;-0.2
6551;-0.195
6552;-0.17
6553;-0.145
6554;-0.105
6555;-0.13
6556;-0.13
6557;-0.125
6558;-0.085
6559;-0.06
6560;-0.045
6561;-0.015
6562;0.005
6563;0.04
6564;0.09
6565;0.145
6566;0.16
6567;0.17
6568;0.135
6569;0.15
6570;0.17
6571;0.175
6572;0.185
6573;0.21
6574;0.22
6575;0.21
6576;0.23
6577;0.245
6578;0.265
6579;0.265
6580;0.25
6581;0.215
6582;0.22
6583;0.225
6584;0.21
6585;0.19
6586;0.16
6587;0.125
6588;0.11
6589;0.11
6590;0.09
6591;0.07
6592;0.02
6593;-0.02
6594;-0.03
6595;-0.04
6596;-0.06
6597;-0.065
6598;-0.075
6599;-0.11
6600;-0.12
6601;-0.125
6602;-0.13
6603;-0.15
6604;-0.175
6605;-0.17
6606;-0.17
6607;-0.185
6608;-0.185
6609;-0.2
6610;-0.235
6611;-0.26
6612;-0.25
6613;-0.26
6614;-0.235
6615;-0.23
6616;-0.255
6617;-0.28
6618;-0.28
6619;-0.26
6620;-0.24
6621;-0.22
6622;-0.235
6623;-0.27
6624;-0.27
6625;-0.255
6626;-0.235
6627;-0.24
6628;-0.285
6629;-0.27
6630;-0.265
6631;-0.23
6632;-0.195
6633;-0.2
6634;-0.21
6635;-0.23
6636;-0.245
6637;-0.24
6638;-0.205
6639;-0.205
6640;-0.205
6641;-0.205
6642;-0.205
6643;-0.18
6644;-0.16
6645;-0.165
6646;-0.185
6647;-0.2
6648;-0.19
6649;-0.155
6650;-0.12
6651;-0.135
6652;-0.185
6653;-0.21
6654;-0.195
6655;-0.18
6656;-0.17
6657;-0.17
6658;-0.185
6659;-0.2
6660;-0.205
6661;-0.19
6662;-0.17
6663;-0.175
6664;-0.195
6665;-0.21
6666;-0.195
6667;-0.18
6668;-0.19
6669;-0.2
6670;-0.205
6671;-0.225
6672;-0.215
6673;-0.21
6674;-0.205
6675;-0.225
6676;-0.255
6677;-0.25
6678;-0.24
6679;-0.225
6680;-0.22
6681;-0.24
6682;-0.25
6683;-0.26
6684;-0.27
6685;-0.275
6686;-0.255
6687;-0.265
6688;-0.265
6689;-0.29
6690;-0.27
6691;-0.27
6692;-0.23
6693;-0.235
6694;-0.25
6695;-0.27
6696;-0.255
6697;-0.23
6698;-0.215
6699;-0.225
6700;-0.23
6701;-0.23
6702;-0.195
6703;-0.17
6704;-0.16
6705;-0.16
6706;-0.165
6707;-0.18
6708;-0.15
6709;-0.125
6710;-0.07
6711;-0.035
6712;0
6713;-0.02
6714;-0.035
6715;-0.02
6716;0.03
6717;0.06
6718;0.07
6719;0.05
6720;0.035
6721;-0.005
6722;-0.015
6723;-0.05
6724;-0.095
6725;-0.15
6726;-0.165
6727;-0.175
6728;-0.21
6729;-0.235
6730;-0.265
6731;-0.285
6732;-0.295
6733;-0.295
6734;-0.275
6735;-0.29
6736;-0.305
6737;-0.3
6738;-0.3
6739;-0.275
6740;-0.25
6741;-0.25
6742;-0.27
6743;-0.28
6744;-0.28
6745;-0.285
6746;-0.29
6747;-0.32
6748;-0.31
6749;-0.23
6750;-0.07
6751;0.18
6752;0.505
6753;0.94
6754;1.325
6755;1.605
6756;1.81
6757;1.9
6758;1.89
6759;1.765
6760;1.485
6761;1.04
6762;0.485
6763;-0.095
6764;-0.515
6765;-0.65
6766;-0.575
6767;-0.5
6768;-0.475
6769;-0.47
6770;-0.44
6771;-0.415
6772;-0.38
6773;-0.385
6774;-0.375
6775;-0.36
6776;-0.36
6777;-0.34
6778;-0.36
6779;-0.365
6780;-0.34
6781;-0.345
6782;-0.375
6783;-0.4
6784;-0.41
6785;-0.38
6786;-0.36
6787;-0.365
6788;-0.37
6789;-0.36
6790;-0.355
6791;-0.335
6792;-0.365
6793;-0.375
6794;-0.36
6795;-0.345
6796;-0.35
6797;-0.355
6798;-0.335
6799;-0.315
6800;-0.315
6801;-0.32
6802;-0.31
6803;-0.305
6804;-0.305
6805;-0.34
6806;-0.365
6807;-0.35
6808;-0.325
6809;-0.335
6810;-0.32
6811;-0.285
6812;-0.25
6813;-0.235
6814;-0.265
6815;-0.285
6816;-0.3
6817;-0.28
6818;-0.255
6819;-0.225
6820;-0.215
6821;-0.245
6822;-0.24
6823;-0.22
6824;-0.185
6825;-0.17
6826;-0.165
6827;-0.175
6828;-0.145
6829;-0.135
6830;-0.125
6831;-0.135
6832;-0.12
6833;-0.13
6834;-0.125
6835;-0.115
6836;-0.095
6837;-0.095
6838;-0.085
6839;-0.075
6840;-0.045
6841;0.01
6842;0.05
6843;0.075
6844;0.075
6845;0.065
6846;0.065
6847;0.1
6848;0.135
6849;0.13
6850;0.12
6851;0.12
6852;0.14
6853;0.145
6854;0.13
6855;0.135
6856;0.14
6857;0.155
6858;0.17
6859;0.185
6860;0.17
6861;0.14
6862;0.12
6863;0.105
6864;0.11
6865;0.105
6866;0.095
6867;0.05
6868;0.02
6869;0.005
6870;0
6871;-0.025
6872;-0.065
6873;-0.095
6874;-0.09
6875;-0.09
6876;-0.1
6877;-0.145
6878;-0.165
6879;-0.17
6880;-0.175
6881;-0.225
6882;-0.25
6883;-0.255
6884;-0.24
6885;-0.245
6886;-0.27
6887;-0.295
6888;-0.285
6889;-0.285
6890;-0.26
6891;-0.26
6892;-0.275
6893;-0.285
6894;-0.29
6895;-0.26
6896;-0.245
6897;-0.275
6898;-0.3
6899;-0.285
6900;-0.275
6901;-0.26
6902;-0.24
6903;-0.225
6904;-0.22
6905;-0.235
6906;-0.235
6907;-0.215
6908;-0.205
6909;-0.2
6910;-0.19
6911;-0.19
6912;-0.18
6913;-0.16
6914;-0.15
6915;-0.145
6916;-0.145
6917;-0.15
6918;-0.145
6919;-0.135
6920;-0.13
6921;-0.145
6922;-0.135
6923;-0.155
6924;-0.15
6925;-0.13
6926;-0.135
6927;-0.155
6928;-0.16
6929;-0.15
6930;-0.145
6931;-0.105
6932;-0.105
6933;-0.145
6934;-0.205
6935;-0.235
6936;-0.205
6937;-0.17
6938;-0.16
6939;-0.16
6940;-0.175
6941;-0.19
6942;-0.2
6943;-0.2
6944;-0.195
6945;-0.205
6946;-0.235
6947;-0.225
6948;-0.23
6949;-0.245
6950;-0.22
6951;-0.215
6952;-0.22
6953;-0.225
6954;-0.235
6955;-0.26
6956;-0.28
6957;-0.29
6958;-0.3
6959;-0.295
6960;-0.29
6961;-0.28
6962;-0.245
6963;-0.245
6964;-0.25
6965;-0.32
6966;-0.335
6967;-0.335
6968;-0.31
6969;-0.295
6970;-0.31
6971;-0.325
6972;-0.315
6973;-0.29
6974;-0.275
6975;-0.265
6976;-0.27
6977;-0.285
6978;-0.295
6979;-0.315
6980;-0.29
6981;-0.285
6982;-0.315
6983;-0.33
6984;-0.32
6985;-0.29
6986;-0.29
6987;-0.315
6988;-0.31
6989;-0.3
6990;-0.33
6991;-0.305
6992;-0.26
6993;-0.24
6994;-0.26
6995;-0.22
6996;-0.2
6997;-0.17
6998;-0.145
6999;-0.13
7000;-0.14
7001;-0.135
7002;-0.1
7003;-0.055
7004;0
7005;0.04
7006;0.045
7007;0.025
7008;0.01
7009;-0.005
7010;-0.025
7011;-0.055
7012;-0.095
7013;-0.12
7014;-0.165
7015;-0.185
7016;-0.195
7017;-0.235
7018;-0.265
7019;-0.325
7020;-0.355
7021;-0.36
7022;-0.335
7023;-0.33
7024;-0.34
7025;-0.335
7026;-0.335
7027;-0.33
7028;-0.32
7029;-0.335
7030;-0.365
7031;-0.375
7032;-0.375
7033;-0.38
7034;-0.395
7035;-0.425
7036;-0.42
7037;-0.375
7038;-0.28
7039;-0.025
7040;0.4
7041;0.92
7042;1.35
7043;1.66
7044;1.86
7045;1.965
7046;1.935
7047;1.73
7048;1.35
7049;0.81
7050;0.175
7051;-0.42
7052;-0.725
7053;-0.675
7054;-0.52
7055;-0.44
7056;-0.43
7057;-0.43
7058;-0.425
7059;-0.4
7060;-0.415
7061;-0.425
7062;-0.45
7063;-0.435
7064;-0.43
7065;-0.44
7066;-0.475
7067;-0.51
7068;-0.485
7069;-0.46
7070;-0.45
7071;-0.45
7072;-0.45
7073;-0.47
7074;-0.445
7075;-0.44
7076;-0.43
7077;-0.43
7078;-0.44
7079;-0.465
7080;-0.455
7081;-0.44
7082;-0.425
7083;-0.435
7084;-0.44
7085;-0.445
7086;-0.43
7087;-0.41
7088;-0.38
7089;-0.38
7090;-0.38
7091;-0.405
7092;-0.42
7093;-0.42
7094;-0.395
7095;-0.385
7096;-0.39
7097;-0.425
7098;-0.425
7099;-0.41
7100;-0.375
7101;-0.36
7102;-0.375
7103;-0.37
7104;-0.36
7105;-0.34
7106;-0.31
7107;-0.315
7108;-0.31
7109;-0.31
7110;-0.3
7111;-0.285
7112;-0.23
7113;-0.22
7114;-0.25
7115;-0.265
7116;-0.265
7117;-0.235
7118;-0.185
7119;-0.18
7120;-0.165
7121;-0.155
7122;-0.145
7123;-0.11
7124;-0.085
7125;-0.085
7126;-0.065
7127;-0.07
7128;-0.06
7129;-0.05
7130;-0.015
7131;0
7132;0.005
7133;0.015
7134;0.025
7135;0.065
7136;0.09
7137;0.11
7138;0.085
7139;0.075
7140;0.095
7141;0.135
7142;0.155
7143;0.12
7144;0.11
7145;0.09
7146;0.07
7147;0.08
7148;0.09
7149;0.085
7150;0.05
7151;0.015
7152;-0.02
7153;0
7154;0
7155;-0.015
7156;-0.05
7157;-0.075
7158;-0.085
7159;-0.085
7160;-0.09
7161;-0.115
7162;-0.145
7163;-0.17
7164;-0.17
7165;-0.16
7166;-0.165
7167;-0.16
7168;-0.185
7169;-0.21
7170;-0.195
7171;-0.185
7172;-0.21
7173;-0.215
7174;-0.215
7175;-0.23
7176;-0.22
7177;-0.21
7178;-0.2
7179;-0.205
7180;-0.2
7181;-0.215
7182;-0.2
7183;-0.175
7184;-0.14
7185;-0.13
7186;-0.17
7187;-0.195
7188;-0.2
7189;-0.185
7190;-0.17
7191;-0.165
7192;-0.165
7193;-0.175
7194;-0.18
7195;-0.17
7196;-0.135
7197;-0.13
7198;-0.14
7199;-0.155
7200;-0.175
7201;-0.175
7202;-0.15
7203;-0.145
7204;-0.15
7205;-0.145
7206;-0.16
7207;-0.155
7208;-0.145
7209;-0.145
7210;-0.165
7211;-0.18
7212;-0.175
7213;-0.16
7214;-0.15
7215;-0.13
7216;-0.125
7217;-0.15
7218;-0.17
7219;-0.18
7220;-0.195
7221;-0.185
7222;-0.195
7223;-0.21
7224;-0.23
7225;-0.22
7226;-0.2
7227;-0.185
7228;-0.19
7229;-0.21
7230;-0.22
7231;-0.205
7232;-0.195
7233;-0.205
7234;-0.22
7235;-0.24
7236;-0.24
7237;-0.22
7238;-0.21
7239;-0.22
7240;-0.23
7241;-0.24
7242;-0.24
7243;-0.235
7244;-0.215
7245;-0.24
7246;-0.245
7247;-0.275
7248;-0.265
7249;-0.255
7250;-0.24
7251;-0.24
7252;-0.255
7253;-0.27
7254;-0.27
7255;-0.255
7256;-0.24
7257;-0.23
7258;-0.23
7259;-0.25
7260;-0.28
7261;-0.255
7262;-0.25
7263;-0.265
7264;-0.295
7265;-0.305
7266;-0.305
7267;-0.27
7268;-0.235
7269;-0.23
7270;-0.235
7271;-0.265
7272;-0.28
7273;-0.265
7274;-0.25
7275;-0.24
7276;-0.25
7277;-0.265
7278;-0.275
7279;-0.27
7280;-0.24
7281;-0.245
7282;-0.245
7283;-0.27
7284;-0.255
7285;-0.24
7286;-0.21
7287;-0.195
7288;-0.18
7289;-0.16
7290;-0.135
7291;-0.105
7292;-0.09
7293;-0.105
7294;-0.13
7295;-0.135
7296;-0.08
7297;0.015
7298;0.085
7299;0.105
7300;0.085
7301;0.07
7302;0.065
7303;0.07
7304;0.09
7305;0.055
7306;0.02
7307;-0.035
7308;-0.11
7309;-0.125
7310;-0.135
7311;-0.155
7312;-0.19
7313;-0.255
7314;-0.25
7315;-0.25
7316;-0.235
7317;-0.245
7318;-0.255
7319;-0.26
7320;-0.25
7321;-0.22
7322;-0.205
7323;-0.215
7324;-0.27
7325;-0.35
7326;-0.395
7327;-0.395
7328;-0.33
7329;-0.155
7330;0.155
7331;0.65
7332;1.2
7333;1.69
7334;1.99
7335;2.14
7336;2.155
7337;2.075
7338;1.83
7339;1.39
7340;0.79
7341;0.15
7342;-0.49
7343;-0.62
7344;-0.45
7345;-0.31
7346;-0.295
7347;-0.295
7348;-0.3
7349;-0.29
7350;-0.305
7351;-0.31
7352;-0.305
7353;-0.325
7354;-0.35
7355;-0.39
7356;-0.39
7357;-0.365
7358;-0.355
7359;-0.35
7360;-0.355
7361;-0.365
7362;-0.375
7363;-0.35
7364;-0.32
7365;-0.33
7366;-0.335
7367;-0.35
7368;-0.35
7369;-0.35
7370;-0.32
7371;-0.315
7372;-0.33
7373;-0.34
7374;-0.34
7375;-0.32
7376;-0.305
7377;-0.32
7378;-0.33
7379;-0.32
7380;-0.315
7381;-0.3
7382;-0.28
7383;-0.28
7384;-0.275
7385;-0.275
7386;-0.28
7387;-0.27
7388;-0.24
7389;-0.245
7390;-0.245
7391;-0.25
7392;-0.24
7393;-0.225
7394;-0.195
7395;-0.195
7396;-0.2
7397;-0.205
7398;-0.205
7399;-0.165
7400;-0.145
7401;-0.14
7402;-0.135
7403;-0.135
7404;-0.12
7405;-0.09
7406;-0.06
7407;-0.05
7408;-0.06
7409;-0.065
7410;-0.045
7411;-0.015
7412;0.025
7413;0.025
7414;0.015
7415;0.03
7416;0.04
7417;0.055
7418;0.09
7419;0.115
7420;0.125
7421;0.13
7422;0.15
7423;0.155
7424;0.19
7425;0.21
7426;0.2
7427;0.19
7428;0.195
7429;0.22
7430;0.24
7431;0.235
7432;0.195
7433;0.17
7434;0.18
7435;0.18
7436;0.18
7437;0.19
7438;0.135
7439;0.1
7440;0.095
7441;0.09
7442;0.08
7443;0.065
7444;0.02
7445;-0.005
7446;0
7447;-0.005
7448;0
7449;-0.025
7450;-0.055
7451;-0.095
7452;-0.09
7453;-0.08
7454;-0.07
7455;-0.095
7456;-0.135
7457;-0.145
7458;-0.155
7459;-0.14
7460;-0.125
7461;-0.14
7462;-0.16
7463;-0.175
7464;-0.165
7465;-0.15
7466;-0.13
7467;-0.125
7468;-0.135
7469;-0.155
7470;-0.15
7471;-0.14
7472;-0.115
7473;-0.125
7474;-0.125
7475;-0.135
7476;-0.13
7477;-0.12
7478;-0.11
7479;-0.105
7480;-0.105
7481;-0.135
7482;-0.12
7483;-0.11
7484;-0.085
7485;-0.09
7486;-0.11
7487;-0.125
7488;-0.12
7489;-0.115
7490;-0.105
7491;-0.095
7492;-0.095
7493;-0.1
7494;-0.1
7495;-0.09
7496;-0.065
7497;-0.055
7498;-0.07
7499;-0.085
7500;-0.095
7501;-0.08
7502;-0.075
7503;-0.07
7504;-0.085
7505;-0.105
7506;-0.1
7507;-0.08
7508;-0.075
7509;-0.095
7510;-0.11
7511;-0.12
7512;-0.125
7513;-0.13
7514;-0.095
7515;-0.11
7516;-0.115
7517;-0.12
7518;-0.11
7519;-0.125
7520;-0.105
7521;-0.125
7522;-0.13
7523;-0.135
7524;-0.15
7525;-0.14
7526;-0.14
7527;-0.14
7528;-0.13
7529;-0.14
7530;-0.155
7531;-0.16
7532;-0.135
7533;-0.15
7534;-0.16
7535;-0.175
7536;-0.17
7537;-0.16
7538;-0.145
7539;-0.16
7540;-0.16
7541;-0.18
7542;-0.195
7543;-0.19
7544;-0.16
7545;-0.16
7546;-0.195
7547;-0.2
7548;-0.185
7549;-0.17
7550;-0.17
7551;-0.175
7552;-0.18
7553;-0.195
7554;-0.195
7555;-0.18
7556;-0.165
7557;-0.165
7558;-0.16
7559;-0.18
7560;-0.19
7561;-0.175
7562;-0.15
7563;-0.14
7564;-0.14
7565;-0.14
7566;-0.12
7567;-0.08
7568;-0.055
7569;-0.03
7570;-0.045
7571;-0.045
7572;-0.03
7573;0.01
7574;0.09
7575;0.135
7576;0.15
7577;0.13
7578;0.13
7579;0.155
7580;0.175
7581;0.175
7582;0.16
7583;0.12
7584;0.085
7585;0.025
7586;-0.01
7587;-0.035
7588;-0.085
7589;-0.115
7590;-0.155
7591;-0.18
7592;-0.18
7593;-0.185
7594;-0.2
7595;-0.21
7596;-0.225
7597;-0.225
7598;-0.185
7599;-0.19
7600;-0.19
7601;-0.22
7602;-0.225
7603;-0.245
7604;-0.245
7605;-0.31
7606;-0.395
7607;-0.42
7608;-0.345
7609;-0.105
7610;0.3
7611;0.85
7612;1.425
7613;1.84
7614;2.09
7615;2.2
7616;2.195
7617;2.125
7618;1.93
7619;1.485
7620;0.845
7621;0.205
7622;-0.435
7623;-0.61
7624;-0.43
7625;-0.295
7626;-0.27
7627;-0.275
7628;-0.28
7629;-0.255
7630;-0.26
7631;-0.295
7632;-0.31
7633;-0.305
7634;-0.3
7635;-0.315
7636;-0.34
7637;-0.35
7638;-0.35
7639;-0.325
7640;-0.32
7641;-0.33
7642;-0.34
7643;-0.345
7644;-0.345
7645;-0.325
7646;-0.33
7647;-0.32
7648;-0.35
7649;-0.37
7650;-0.38
7651;-0.36
7652;-0.33
7653;-0.315
7654;-0.33
7655;-0.345
7656;-0.34
7657;-0.32
7658;-0.3
7659;-0.29
7660;-0.29
7661;-0.315
7662;-0.305
7663;-0.3
7664;-0.28
7665;-0.255
7666;-0.255
7667;-0.27
7668;-0.26
7669;-0.24
7670;-0.22
7671;-0.21
7672;-0.205
7673;-0.21
7674;-0.205
7675;-0.2
7676;-0.17
7677;-0.17
7678;-0.16
7679;-0.165
7680;-0.17
7681;-0.145
7682;-0.12
7683;-0.1
7684;-0.105
7685;-0.09
7686;-0.075
7687;-0.045
7688;-0.025
7689;-0.005
7690;-0.015
7691;-0.015
7692;0
7693;0.02
7694;0.055
7695;0.07
7696;0.07
7697;0.075
7698;0.105
7699;0.125
7700;0.135
7701;0.16
7702;0.145
7703;0.15
7704;0.165
7705;0.185
7706;0.21
7707;0.23
7708;0.205
7709;0.205
7710;0.205
7711;0.215
7712;0.225
7713;0.195
7714;0.2
7715;0.155
7716;0.14
7717;0.145
7718;0.145
7719;0.13
7720;0.115
7721;0.075
7722;0.07
7723;0.07
7724;0.055
7725;0.025
7726;-0.02
7727;-0.025
7728;-0.025
7729;-0.025
7730;-0.03
7731;-0.055
7732;-0.085
7733;-0.115
7734;-0.12
7735;-0.12
7736;-0.1
7737;-0.125
7738;-0.105
7739;-0.125
7740;-0.13
7741;-0.125
7742;-0.12
7743;-0.125
7744;-0.135
7745;-0.15
7746;-0.145
7747;-0.135
7748;-0.125
7749;-0.12
7750;-0.125
7751;-0.125
7752;-0.11
7753;-0.11
7754;-0.105
7755;-0.085
7756;-0.1
7757;-0.13
7758;-0.12
7759;-0.11
7760;-0.08
7761;-0.08
7762;-0.08
7763;-0.105
7764;-0.1
7765;-0.085
7766;-0.085
7767;-0.1
7768;-0.1
7769;-0.105
7770;-0.1
7771;-0.08
7772;-0.065
7773;-0.075
7774;-0.08
7775;-0.09
7776;-0.08
7777;-0.085
7778;-0.085
7779;-0.08
7780;-0.085
7781;-0.095
7782;-0.105
7783;-0.1
7784;-0.09
7785;-0.085
7786;-0.09
7787;-0.11
7788;-0.115
7789;-0.105
7790;-0.1
7791;-0.11
7792;-0.13
7793;-0.155
7794;-0.145
7795;-0.14
7796;-0.12
7797;-0.115
7798;-0.135
7799;-0.16
7800;-0.155
7801;-0.16
7802;-0.14
7803;-0.15
7804;-0.16
7805;-0.185
7806;-0.205
7807;-0.205
7808;-0.17
7809;-0.16
7810;-0.18
7811;-0.2
7812;-0.195
7813;-0.19
7814;-0.18
7815;-0.185
7816;-0.205
7817;-0.22
7818;-0.225
7819;-0.215
7820;-0.195
7821;-0.19
7822;-0.21
7823;-0.23
7824;-0.215
7825;-0.215
7826;-0.2
7827;-0.21
7828;-0.23
7829;-0.24
7830;-0.235
7831;-0.235
7832;-0.21
7833;-0.21
7834;-0.22
7835;-0.235
7836;-0.245
7837;-0.235
7838;-0.22
7839;-0.225
7840;-0.22
7841;-0.22
7842;-0.21
7843;-0.18
7844;-0.17
7845;-0.145
7846;-0.145
7847;-0.145
7848;-0.13
7849;-0.095
7850;-0.07
7851;-0.05
7852;-0.045
7853;-0.03
7854;0.025
7855;0.075
7856;0.11
7857;0.11
7858;0.09
7859;0.06
7860;0.06
7861;0.09
7862;0.105
7863;0.075
7864;-0.005
7865;-0.08
7866;-0.12
7867;-0.145
7868;-0.145
7869;-0.18
7870;-0.23
7871;-0.27
7872;-0.285
7873;-0.27
7874;-0.255
7875;-0.265
7876;-0.28
7877;-0.3
7878;-0.305
7879;-0.3
7880;-0.28
7881;-0.275
7882;-0.285
7883;-0.305
7884;-0.325
7885;-0.37
7886;-0.425
7887;-0.505
7888;-0.53
7889;-0.475
7890;-0.285
7891;0.04
7892;0.515
7893;1.07
7894;1.545
7895;1.89
7896;2.05
7897;2.115
7898;2.08
7899;1.975
7900;1.7
7901;1.185
7902;0.545
7903;-0.095
7904;-0.69
7905;-0.665
7906;-0.47
7907;-0.36
7908;-0.37
7909;-0.39
7910;-0.385
7911;-0.36
7912;-0.4
7913;-0.42
7914;-0.43
7915;-0.45
7916;-0.435
7917;-0.44
7918;-0.455
7919;-0.455
7920;-0.47
7921;-0.455
7922;-0.445
7923;-0.445
7924;-0.46
7925;-0.475
7926;-0.48
7927;-0.46
7928;-0.44
7929;-0.435
7930;-0.445
7931;-0.455
7932;-0.455
7933;-0.445
7934;-0.445
7935;-0.44
7936;-0.445
7937;-0.47
7938;-0.455
7939;-0.435
7940;-0.42
7941;-0.41
7942;-0.425
7943;-0.43
7944;-0.435
7945;-0.415
7946;-0.4
7947;-0.39
7948;-0.41
7949;-0.425
7950;-0.415
7951;-0.39
7952;-0.365
7953;-0.365
7954;-0.35
7955;-0.345
7956;-0.34
7957;-0.325
7958;-0.3
7959;-0.28
7960;-0.295
7961;-0.305
7962;-0.285
7963;-0.285
7964;-0.26
7965;-0.24
7966;-0.235
7967;-0.24
7968;-0.225
7969;-0.19
7970;-0.175
7971;-0.155
7972;-0.155
7973;-0.18
7974;-0.16
7975;-0.12
7976;-0.09
7977;-0.055
7978;-0.07
7979;-0.085
7980;-0.095
7981;-0.08
7982;-0.035
7983;-0.015
7984;-0.01
7985;-0.025
7986;-0.005
7987;0.025
7988;0.03
7989;0.035
7990;0.05
7991;0.035
7992;0.03
7993;0.04
7994;0.055
7995;0.05
7996;0.035
7997;-0.005
7998;0.015
7999;-0.01
8000;-0.02
8001;-0.02
8002;-0.045
8003;-0.065
8004;-0.075
8005;-0.085
8006;-0.09
8007;-0.105
8008;-0.13
8009;-0.15
8010;-0.16
8011;-0.17
8012;-0.16
8013;-0.18
8014;-0.21
8015;-0.22
8016;-0.22
8017;-0.215
8018;-0.21
8019;-0.21
8020;-0.23
8021;-0.25
8022;-0.255
8023;-0.245
8024;-0.22
8025;-0.215
8026;-0.215
8027;-0.24
8028;-0.245
8029;-0.22
8030;-0.205
8031;-0.185
8032;-0.2
8033;-0.225
8034;-0.205
8035;-0.195
8036;-0.165
8037;-0.16
8038;-0.195
8039;-0.205
8040;-0.205
8041;-0.2
8042;-0.195
8043;-0.185
8044;-0.205
8045;-0.205
8046;-0.195
8047;-0.175
8048;-0.16
8049;-0.16
8050;-0.195
8051;-0.21
8052;-0.225
8053;-0.21
8054;-0.185
8055;-0.175
8056;-0.175
8057;-0.19
8058;-0.19
8059;-0.185
8060;-0.18
8061;-0.17
8062;-0.18
8063;-0.205
8064;-0.2
8065;-0.19
8066;-0.185
8067;-0.2
8068;-0.215
8069;-0.225
8070;-0.235
8071;-0.225
8072;-0.205
8073;-0.22
8074;-0.22
8075;-0.245
8076;-0.245
8077;-0.235
8078;-0.23
8079;-0.245
8080;-0.245
8081;-0.265
8082;-0.26
8083;-0.245
8084;-0.245
8085;-0.24
8086;-0.26
8087;-0.265
8088;-0.27
8089;-0.26
8090;-0.245
8091;-0.225
8092;-0.24
8093;-0.255
8094;-0.295
8095;-0.305
8096;-0.285
8097;-0.26
8098;-0.25
8099;-0.265
8100;-0.275
8101;-0.29
8102;-0.27
8103;-0.255
8104;-0.265
8105;-0.275
8106;-0.29
8107;-0.285
8108;-0.275
8109;-0.305
8110;-0.3
8111;-0.31
8112;-0.295
8113;-0.28
8114;-0.265
8115;-0.26
8116;-0.28
8117;-0.3
8118;-0.285
8119;-0.28
8120;-0.265
8121;-0.255
8122;-0.27
8123;-0.295
8124;-0.29
8125;-0.27
8126;-0.25
8127;-0.24
8128;-0.245
8129;-0.235
8130;-0.195
8131;-0.175
8132;-0.15
8133;-0.13
8134;-0.12
8135;-0.135
8136;-0.13
8137;-0.085
8138;-0.03
8139;0.04
8140;0.075
8141;0.065
8142;0.06
8143;0.06
8144;0.075
8145;0.08
8146;0.065
8147;0.045
8148;0.01
8149;-0.03
8150;-0.075
8151;-0.11
8152;-0.14
8153;-0.17
8154;-0.205
8155;-0.235
8156;-0.24
8157;-0.27
8158;-0.32
8159;-0.365
8160;-0.37
8161;-0.315
8162;-0.305
8163;-0.3
8164;-0.315
8165;-0.345
8166;-0.335
8167;-0.33
8168;-0.335
8169;-0.34
8170;-0.37
8171;-0.44
8172;-0.48
8173;-0.525
8174;-0.505
8175;-0.405
8176;-0.21
8177;0.105
8178;0.565
8179;1.09
8180;1.535
8181;1.84
8182;1.995
8183;2.04
8184;2.015
8185;1.955
8186;1.785
8187;1.42
8188;0.855
8189;0.215
8190;-0.365
8191;-0.655
8192;-0.62
8193;-0.48
8194;-0.4
8195;-0.4
8196;-0.385
8197;-0.365
8198;-0.34
8199;-0.34
8200;-0.36
8201;-0.38
8202;-0.405
8203;-0.41
8204;-0.395
8205;-0.41
8206;-0.43
8207;-0.46
8208;-0.47
8209;-0.43
8210;-0.385
8211;-0.37
8212;-0.38
8213;-0.425
8214;-0.43
8215;-0.42
8216;-0.4
8217;-0.38
8218;-0.385
8219;-0.4
8220;-0.39
8221;-0.385
8222;-0.375
8223;-0.355
8224;-0.37
8225;-0.375
8226;-0.385
8227;-0.38
8228;-0.38
8229;-0.385
8230;-0.405
8231;-0.415
8232;-0.385
8233;-0.345
8234;-0.315
8235;-0.335
8236;-0.345
8237;-0.34
8238;-0.35
8239;-0.325
8240;-0.315
8241;-0.315
8242;-0.315
8243;-0.33
8244;-0.32
8245;-0.3
8246;-0.27
8247;-0.27
8248;-0.26
8249;-0.24
8250;-0.24
8251;-0.22
8252;-0.215
8253;-0.225
8254;-0.24
8255;-0.24
8256;-0.235
8257;-0.235
8258;-0.185
8259;-0.17
8260;-0.165
8261;-0.16
8262;-0.165
8263;-0.145
8264;-0.14
8265;-0.125
8266;-0.13
8267;-0.135
8268;-0.12
8269;-0.095
8270;-0.08
8271;-0.07
8272;-0.065
8273;-0.055
8274;-0.035
8275;-0.015
8276;0.01
8277;0.035
8278;0.035
8279;0.02
8280;0.015
8281;-0.005
8282;-0.025
8283;-0.04
8284;-0.035
8285;0.005
8286;0.005
8287;0.02
8288;0.02
8289;0.02
8290;-0.005
8291;-0.005
8292;-0.01
8293;-0.02
8294;-0.015
8295;-0.035
8296;-0.04
8297;-0.06
8298;-0.055
8299;-0.065
8300;-0.06
8301;-0.065
8302;-0.085
8303;-0.1
8304;-0.12
8305;-0.125
8306;-0.14
8307;-0.15
8308;-0.18
8309;-0.215
8310;-0.23
8311;-0.235
8312;-0.21
8313;-0.205
8314;-0.215
8315;-0.23
8316;-0.24
8317;-0.21
8318;-0.2
8319;-0.21
8320;-0.21
8321;-0.225
8322;-0.21
8323;-0.2
8324;-0.2
8325;-0.205
8326;-0.205
8327;-0.26
8328;-0.26
8329;-0.22
8330;-0.175
8331;-0.175
8332;-0.19
8333;-0.225
8334;-0.2
8335;-0.195
8336;-0.175
8337;-0.18
8338;-0.19
8339;-0.185
8340;-0.18
8341;-0.185
8342;-0.18
8343;-0.165
8344;-0.17
8345;-0.175
8346;-0.17
8347;-0.155
8348;-0.15
8349;-0.155
8350;-0.18
8351;-0.175
8352;-0.18
8353;-0.165
8354;-0.155
8355;-0.135
8356;-0.14
8357;-0.165
8358;-0.18
8359;-0.18
8360;-0.175
8361;-0.19
8362;-0.175
8363;-0.2
8364;-0.195
8365;-0.19
8366;-0.185
8367;-0.185
8368;-0.215
8369;-0.225
8370;-0.215
8371;-0.21
8372;-0.2
8373;-0.215
8374;-0.215
8375;-0.24
8376;-0.245
8377;-0.235
8378;-0.215
8379;-0.235
8380;-0.245
8381;-0.255
8382;-0.27
8383;-0.255
8384;-0.245
8385;-0.255
8386;-0.27
8387;-0.275
8388;-0.28
8389;-0.27
8390;-0.265
8391;-0.27
8392;-0.28
8393;-0.295
8394;-0.3
8395;-0.29
8396;-0.285
8397;-0.28
8398;-0.29
8399;-0.305
8400;-0.32
8401;-0.295
8402;-0.28
8403;-0.28
8404;-0.27
8405;-0.29
8406;-0.295
8407;-0.295
8408;-0.285
8409;-0.285
8410;-0.305
8411;-0.31
8412;-0.31
8413;-0.31
8414;-0.3
8415;-0.29
8416;-0.305
8417;-0.32
8418;-0.31
8419;-0.29
8420;-0.27
8421;-0.26
8422;-0.24
8423;-0.225
8424;-0.21
8425;-0.19
8426;-0.18
8427;-0.165
8428;-0.17
8429;-0.175
8430;-0.115
8431;-0.045
8432;0.025
8433;0.055
8434;0.055
8435;0.03
8436;0.035
8437;0.055
8438;0.065
8439;0.05
8440;0.025
8441;-0.04
8442;-0.1
8443;-0.13
8444;-0.14
8445;-0.16
8446;-0.185
8447;-0.245
8448;-0.3
8449;-0.33
8450;-0.345
8451;-0.345
8452;-0.34
8453;-0.36
8454;-0.365
8455;-0.345
8456;-0.32
8457;-0.33
8458;-0.36
8459;-0.385
8460;-0.38
8461;-0.375
8462;-0.365
8463;-0.395
8464;-0.465
8465;-0.54
8466;-0.54
8467;-0.44
8468;-0.235
8469;0.1
8470;0.575
8471;1.07
8472;1.495
8473;1.805
8474;1.97
8475;2.035
8476;2.025
8477;1.965
8478;1.8
8479;1.505
8480;0.97
8481;0.33
8482;-0.31
8483;-0.86
8484;-0.865
8485;-0.67
8486;-0.52
8487;-0.46
8488;-0.44
8489;-0.44
8490;-0.43
8491;-0.44
8492;-0.41
8493;-0.415
8494;-0.44
8495;-0.47
8496;-0.475
8497;-0.485
8498;-0.465
8499;-0.455
8500;-0.46
8501;-0.475
8502;-0.47
8503;-0.47
8504;-0.46
8505;-0.45
8506;-0.465
8507;-0.49
8508;-0.485
8509;-0.46
8510;-0.435
8511;-0.43
8512;-0.44
8513;-0.46
8514;-0.46
8515;-0.435
8516;-0.425
8517;-0.435
8518;-0.435
8519;-0.44
8520;-0.44
8521;-0.415
8522;-0.4
8523;-0.38
8524;-0.385
8525;-0.4
8526;-0.39
8527;-0.385
8528;-0.355
8529;-0.36
8530;-0.36
8531;-0.38
8532;-0.37
8533;-0.35
8534;-0.335
8535;-0.325
8536;-0.345
8537;-0.355
8538;-0.35
8539;-0.345
8540;-0.3
8541;-0.305
8542;-0.315
8543;-0.31
8544;-0.275
8545;-0.225
8546;-0.2
8547;-0.21
8548;-0.22
8549;-0.24
8550;-0.24
8551;-0.24
8552;-0.19
8553;-0.165
8554;-0.165
8555;-0.185
8556;-0.175
8557;-0.145
8558;-0.12
8559;-0.095
8560;-0.1
8561;-0.13
8562;-0.12
8563;-0.09
8564;-0.045
8565;-0.025
8566;-0.025
8567;-0.045
8568;-0.055
8569;-0.04
8570;-0.03
8571;0.005
8572;0.035
8573;0.04
8574;0.05
8575;0.04
8576;0.05
8577;0.04
8578;0.04
8579;0.03
8580;0.015
8581;0.035
8582;0.055
8583;0.045
8584;0.04
8585;0.03
8586;0
8587;-0.005
8588;-0.01
8589;0
8590;-0.01
8591;-0.025
8592;-0.035
8593;-0.055
8594;-0.055
8595;-0.085
8596;-0.1
8597;-0.125
8598;-0.135
8599;-0.125
8600;-0.14
8601;-0.14
8602;-0.15
8603;-0.15
8604;-0.155
8605;-0.145
8606;-0.125
8607;-0.125
8608;-0.135
8609;-0.165
8610;-0.18
8611;-0.17
8612;-0.165
8613;-0.165
8614;-0.18
8615;-0.18
8616;-0.17
8617;-0.155
8618;-0.14
8619;-0.14
8620;-0.14
8621;-0.15
8622;-0.155
8623;-0.165
8624;-0.14
8625;-0.125
8626;-0.135
8627;-0.15
8628;-0.13
8629;-0.115
8630;-0.11
8631;-0.115
8632;-0.115
8633;-0.13
8634;-0.14
8635;-0.14
8636;-0.12
8637;-0.1
8638;-0.115
8639;-0.115
8640;-0.115
8641;-0.1
8642;-0.09
8643;-0.095
8644;-0.09
8645;-0.105
8646;-0.12
8647;-0.125
8648;-0.115
8649;-0.12
8650;-0.125
8651;-0.115
8652;-0.11
8653;-0.1
8654;-0.12
8655;-0.155
8656;-0.2
8657;-0.2
8658;-0.16
8659;-0.135
8660;-0.115
8661;-0.125
8662;-0.15
8663;-0.195
8664;-0.23
8665;-0.235
8666;-0.21
8667;-0.2
8668;-0.205
8669;-0.235
8670;-0.24
8671;-0.23
8672;-0.215
8673;-0.225
8674;-0.23
8675;-0.24
8676;-0.245
8677;-0.245
8678;-0.23
8679;-0.235
8680;-0.24
8681;-0.255
8682;-0.28
8683;-0.275
8684;-0.26
8685;-0.285
8686;-0.28
8687;-0.305
8688;-0.29
8689;-0.285
8690;-0.25
8691;-0.27
8692;-0.27
8693;-0.27
8694;-0.285
8695;-0.27
8696;-0.28
8697;-0.29
8698;-0.295
8699;-0.29
8700;-0.29
8701;-0.28
8702;-0.255
8703;-0.23
8704;-0.24
8705;-0.245
8706;-0.25
8707;-0.24
8708;-0.225
8709;-0.215
8710;-0.215
8711;-0.21
8712;-0.195
8713;-0.18
8714;-0.16
8715;-0.12
8716;-0.07
8717;-0.03
8718;-0.005
8719;0.025
8720;0.035
8721;0.04
8722;0.045
8723;0.035
8724;0.035
8725;0.01
8726;-0.02
8727;-0.055
8728;-0.125
8729;-0.18
8730;-0.2
8731;-0.24
8732;-0.25
8733;-0.29
8734;-0.315
8735;-0.36
8736;-0.36
8737;-0.36
8738;-0.33
8739;-0.34
8740;-0.35
8741;-0.365
8742;-0.375
8743;-0.365
8744;-0.35
8745;-0.34
8746;-0.36
8747;-0.405
8748;-0.46
8749;-0.5
8750;-0.465
8751;-0.325
8752;-0.085
8753;0.29
8754;0.81
8755;1.34
8756;1.735
8757;1.93
8758;1.99
8759;1.93
8760;1.81
8761;1.53
8762;1.015
8763;0.375
8764;-0.265
8765;-0.885
8766;-0.9
8767;-0.73
8768;-0.58
8769;-0.525
8770;-0.52
8771;-0.525
8772;-0.495
8773;-0.475
8774;-0.45
8775;-0.46
8776;-0.495
8777;-0.5
8778;-0.515
8779;-0.515
8780;-0.49
8781;-0.495
8782;-0.5
8783;-0.52
8784;-0.55
8785;-0.53
8786;-0.5
8787;-0.49
8788;-0.495
8789;-0.525
8790;-0.53
8791;-0.52
8792;-0.515
8793;-0.505
8794;-0.5
8795;-0.515
8796;-0.505
8797;-0.505
8798;-0.48
8799;-0.49
8800;-0.49
8801;-0.51
8802;-0.505
8803;-0.5
8804;-0.48
8805;-0.475
8806;-0.47
8807;-0.485
8808;-0.47
8809;-0.465
8810;-0.445
8811;-0.44
8812;-0.46
8813;-0.465
8814;-0.465
8815;-0.46
8816;-0.415
8817;-0.415
8818;-0.395
8819;-0.41
8820;-0.405
8821;-0.4
8822;-0.37
8823;-0.355
8824;-0.36
8825;-0.365
8826;-0.365
8827;-0.345
8828;-0.32
8829;-0.3
8830;-0.29
8831;-0.305
8832;-0.31
8833;-0.29
8834;-0.275
8835;-0.265
8836;-0.255
8837;-0.25
8838;-0.235
8839;-0.205
8840;-0.2
8841;-0.19
8842;-0.195
8843;-0.195
8844;-0.17
8845;-0.155
8846;-0.135
8847;-0.11
8848;-0.11
8849;-0.115
8850;-0.11
8851;-0.11
8852;-0.08
8853;-0.085
8854;-0.085
8855;-0.085
8856;-0.085
8857;-0.095
8858;-0.075
8859;-0.09
8860;-0.115
8861;-0.135
8862;-0.145
8863;-0.135
8864;-0.135
8865;-0.145
8866;-0.17
8867;-0.19
8868;-0.205
8869;-0.215
8870;-0.225
8871;-0.23
8872;-0.255
8873;-0.285
8874;-0.29
8875;-0.305
8876;-0.295
8877;-0.305
8878;-0.325
8879;-0.345
8880;-0.345
8881;-0.355
8882;-0.35
8883;-0.335
8884;-0.36
8885;-0.385
8886;-0.39
8887;-0.375
8888;-0.355
8889;-0.36
8890;-0.36
8891;-0.39
8892;-0.385
8893;-0.38
8894;-0.34
8895;-0.35
8896;-0.35
8897;-0.35
8898;-0.36
8899;-0.35
8900;-0.335
8901;-0.33
8902;-0.35
8903;-0.355
8904;-0.345
8905;-0.335
8906;-0.32
8907;-0.305
8908;-0.32
8909;-0.34
8910;-0.335
8911;-0.315
8912;-0.31
8913;-0.3
8914;-0.31
8915;-0.325
8916;-0.335
8917;-0.31
8918;-0.3
8919;-0.3
8920;-0.315
8921;-0.315
8922;-0.32
8923;-0.32
8924;-0.295
8925;-0.3
8926;-0.31
8927;-0.32
8928;-0.33
8929;-0.315
8930;-0.32
8931;-0.325
8932;-0.335
8933;-0.345
8934;-0.355
8935;-0.355
8936;-0.35
8937;-0.325
8938;-0.335
8939;-0.36
8940;-0.37
8941;-0.36
8942;-0.365
8943;-0.375
8944;-0.38
8945;-0.4
8946;-0.41
8947;-0.39
8948;-0.38
8949;-0.385
8950;-0.4
8951;-0.415
8952;-0.405
8953;-0.415
8954;-0.4
8955;-0.39
8956;-0.4
8957;-0.425
8958;-0.425
8959;-0.415
8960;-0.42
8961;-0.415
8962;-0.42
8963;-0.43
8964;-0.44
8965;-0.43
8966;-0.41
8967;-0.41
8968;-0.42
8969;-0.42
8970;-0.435
8971;-0.41
8972;-0.395
8973;-0.375
8974;-0.365
8975;-0.365
8976;-0.35
8977;-0.31
8978;-0.28
8979;-0.27
8980;-0.265
8981;-0.245
8982;-0.195
8983;-0.11
8984;-0.06
8985;-0.055
8986;-0.065
8987;-0.07
8988;-0.06
8989;-0.05
8990;-0.04
8991;-0.085
8992;-0.125
8993;-0.185
8994;-0.205
8995;-0.235
8996;-0.28
8997;-0.355
8998;-0.44
8999;-0.475
9000;-0.465
9001;-0.42
9002;-0.395
9003;-0.36
9004;-0.405
9005;-0.445
9006;-0.51
9007;-0.535
9008;-0.545
9009;-0.495
9010;-0.475
9011;-0.48
9012;-0.49
9013;-0.515
9014;-0.555
9015;-0.605
9016;-0.615
9017;-0.56
9018;-0.38
9019;-0.065
9020;0.405
9021;0.95
9022;1.42
9023;1.735
9024;1.88
9025;1.92
9026;1.885
9027;1.685
9028;1.275
9029;0.675
9030;0.035
9031;-0.605
9032;-0.855
9033;-0.73
9034;-0.605
9035;-0.57
9036;-0.58
9037;-0.565
9038;-0.555
9039;-0.515
9040;-0.515
9041;-0.54
9042;-0.545
9043;-0.55
9044;-0.55
9045;-0.54
9046;-0.57
9047;-0.59
9048;-0.58
9049;-0.57
9050;-0.565
9051;-0.545
9052;-0.545
9053;-0.555
9054;-0.55
9055;-0.55
9056;-0.545
9057;-0.54
9058;-0.53
9059;-0.545
9060;-0.555
9061;-0.54
9062;-0.54
9063;-0.525
9064;-0.53
9065;-0.545
9066;-0.55
9067;-0.525
9068;-0.5
9069;-0.49
9070;-0.495
9071;-0.51
9072;-0.505
9073;-0.5
9074;-0.475
9075;-0.465
9076;-0.465
9077;-0.475
9078;-0.475
9079;-0.465
9080;-0.435
9081;-0.435
9082;-0.45
9083;-0.46
9084;-0.435
9085;-0.42
9086;-0.395
9087;-0.38
9088;-0.385
9089;-0.41
9090;-0.425
9091;-0.405
9092;-0.38
9093;-0.35
9094;-0.34
9095;-0.355
9096;-0.34
9097;-0.315
9098;-0.305
9099;-0.305
9100;-0.295
9101;-0.295
9102;-0.27
9103;-0.25
9104;-0.22
9105;-0.215
9106;-0.23
9107;-0.22
9108;-0.2
9109;-0.18
9110;-0.17
9111;-0.15
9112;-0.145
9113;-0.14
9114;-0.14
9115;-0.135
9116;-0.1
9117;-0.09
9118;-0.11
9119;-0.135
9120;-0.125
9121;-0.115
9122;-0.115
9123;-0.12
9124;-0.12
9125;-0.14
9126;-0.145
9127;-0.145
9128;-0.145
9129;-0.155
9130;-0.175
9131;-0.205
9132;-0.225
9133;-0.23
9134;-0.23
9135;-0.255
9136;-0.275
9137;-0.305
9138;-0.325
9139;-0.32
9140;-0.355
9141;-0.37
9142;-0.365
9143;-0.39
9144;-0.395
9145;-0.39
9146;-0.385
9147;-0.405
9148;-0.425
9149;-0.43
9150;-0.445
9151;-0.41
9152;-0.395
9153;-0.405
9154;-0.4
9155;-0.405
9156;-0.41
9157;-0.395
9158;-0.38
9159;-0.38
9160;-0.38
9161;-0.415
9162;-0.395
9163;-0.385
9164;-0.365
9165;-0.345
9166;-0.355
9167;-0.39
9168;-0.375
9169;-0.35
9170;-0.33
9171;-0.33
9172;-0.33
9173;-0.35
9174;-0.355
9175;-0.335
9176;-0.305
9177;-0.325
9178;-0.315
9179;-0.34
9180;-0.35
9181;-0.34
9182;-0.305
9183;-0.295
9184;-0.305
9185;-0.32
9186;-0.335
9187;-0.305
9188;-0.305
9189;-0.305
9190;-0.31
9191;-0.33
9192;-0.34
9193;-0.335
9194;-0.315
9195;-0.31
9196;-0.32
9197;-0.34
9198;-0.355
9199;-0.335
9200;-0.325
9201;-0.325
9202;-0.355
9203;-0.37
9204;-0.37
9205;-0.365
9206;-0.34
9207;-0.355
9208;-0.355
9209;-0.37
9210;-0.375
9211;-0.36
9212;-0.36
9213;-0.355
9214;-0.37
9215;-0.38
9216;-0.37
9217;-0.365
9218;-0.35
9219;-0.34
9220;-0.345
9221;-0.325
9222;-0.315
9223;-0.28
9224;-0.27
9225;-0.25
9226;-0.245
9227;-0.25
9228;-0.205
9229;-0.15
9230;-0.095
9231;-0.055
9232;-0.05
9233;-0.055
9234;-0.06
9235;-0.055
9236;-0.03
9237;-0.025
9238;-0.06
9239;-0.12
9240;-0.175
9241;-0.22
9242;-0.235
9243;-0.255
9244;-0.29
9245;-0.335
9246;-0.375
9247;-0.38
9248;-0.385
9249;-0.39
9250;-0.395
9251;-0.42
9252;-0.445
9253;-0.435
9254;-0.4
9255;-0.4
9256;-0.415
9257;-0.425
9258;-0.435
9259;-0.425
9260;-0.42
9261;-0.44
9262;-0.475
9263;-0.475
9264;-0.385
9265;-0.195
9266;0.135
9267;0.565
9268;1.075
9269;1.48
9270;1.735
9271;1.86
9272;1.87
9273;1.765
9274;1.485
9275;0.975
9276;0.335
9277;-0.305
9278;-0.775
9279;-0.79
9280;-0.65
9281;-0.565
9282;-0.565
9283;-0.57
9284;-0.54
9285;-0.51
9286;-0.495
9287;-0.505
9288;-0.515
9289;-0.51
9290;-0.505
9291;-0.505
9292;-0.505
9293;-0.535
9294;-0.535
9295;-0.525
9296;-0.51
9297;-0.495
9298;-0.505
9299;-0.515
9300;-0.525
9301;-0.51
9302;-0.5
9303;-0.49
9304;-0.485
9305;-0.505
9306;-0.51
9307;-0.515
9308;-0.485
9309;-0.47
9310;-0.47
9311;-0.5
9312;-0.5
9313;-0.48
9314;-0.465
9315;-0.465
9316;-0.465
9317;-0.47
9318;-0.46
9319;-0.435
9320;-0.425
9321;-0.415
9322;-0.415
9323;-0.43
9324;-0.425
9325;-0.41
9326;-0.395
9327;-0.37
9328;-0.38
9329;-0.39
9330;-0.38
9331;-0.355
9332;-0.34
9333;-0.35
9334;-0.315
9335;-0.335
9336;-0.31
9337;-0.3
9338;-0.27
9339;-0.245
9340;-0.235
9341;-0.245
9342;-0.235
9343;-0.21
9344;-0.19
9345;-0.17
9346;-0.17
9347;-0.17
9348;-0.16
9349;-0.135
9350;-0.095
9351;-0.08
9352;-0.08
9353;-0.095
9354;-0.075
9355;-0.05
9356;-0.03
9357;-0.005
9358;0.005
9359;-0.005
9360;-0.005
9361;0.005
9362;0.015
9363;0.01
9364;0.02
9365;0.01
9366;0
9367;-0.02
9368;-0.03
9369;-0.03
9370;-0.03
9371;-0.03
9372;-0.06
9373;-0.065
9374;-0.055
9375;-0.07
9376;-0.095
9377;-0.135
9378;-0.17
9379;-0.185
9380;-0.195
9381;-0.215
9382;-0.245
9383;-0.28
9384;-0.295
9385;-0.295
9386;-0.28
9387;-0.29
9388;-0.305
9389;-0.33
9390;-0.345
9391;-0.35
9392;-0.325
9393;-0.32
9394;-0.34
9395;-0.355
9396;-0.355
9397;-0.35
9398;-0.34
9399;-0.33
9400;-0.355
9401;-0.355
9402;-0.355
9403;-0.35
9404;-0.34
9405;-0.325
9406;-0.34
9407;-0.35
9408;-0.355
9409;-0.32
9410;-0.305
9411;-0.3
9412;-0.295
9413;-0.315
9414;-0.315
9415;-0.3
9416;-0.285
9417;-0.275
9418;-0.265
9419;-0.265
9420;-0.275
9421;-0.275
9422;-0.255
9423;-0.245
9424;-0.245
9425;-0.25
9426;-0.26
9427;-0.25
9428;-0.245
9429;-0.235
9430;-0.23
9431;-0.25
9432;-0.24
9433;-0.245
9434;-0.215
9435;-0.215
9436;-0.235
9437;-0.23
9438;-0.24
9439;-0.23
9440;-0.22
9441;-0.22
9442;-0.24
9443;-0.255
9444;-0.265
9445;-0.25
9446;-0.24
9447;-0.245
9448;-0.26
9449;-0.275
9450;-0.285
9451;-0.28
9452;-0.275
9453;-0.265
9454;-0.27
9455;-0.29
9456;-0.295
9457;-0.295
9458;-0.28
9459;-0.28
9460;-0.285
9461;-0.295
9462;-0.31
9463;-0.305
9464;-0.285
9465;-0.26
9466;-0.25
9467;-0.24
9468;-0.22
9469;-0.195
9470;-0.165
9471;-0.155
9472;-0.165
9473;-0.165
9474;-0.14
9475;-0.1
9476;-0.02
9477;0.03
9478;0.045
9479;0.03
9480;0.005
9481;0.015
9482;0.035
9483;0.035
9484;-0.005
9485;-0.08
9486;-0.15
9487;-0.18
9488;-0.205
9489;-0.205
9490;-0.265
9491;-0.32
9492;-0.355
9493;-0.355
9494;-0.355
9495;-0.37
9496;-0.375
9497;-0.395
9498;-0.395
9499;-0.39
9500;-0.365
9501;-0.37
9502;-0.38
9503;-0.395
9504;-0.41
9505;-0.425
9506;-0.46
9507;-0.51
9508;-0.58
9509;-0.59
9510;-0.465
9511;-0.23
9512;0.165
9513;0.72
9514;1.265
9515;1.665
9516;1.91
9517;2.02
9518;2.015
9519;1.93
9520;1.66
9521;1.17
9522;0.53
9523;-0.11
9524;-0.75
9525;-0.735
9526;-0.53
9527;-0.435
9528;-0.42
9529;-0.46
9530;-0.455
9531;-0.445
9532;-0.46
9533;-0.49
9534;-0.53
9535;-0.515
9536;-0.5
9537;-0.51
9538;-0.52
9539;-0.53
9540;-0.565
9541;-0.53
9542;-0.53
9543;-0.53
9544;-0.54
9545;-0.56
9546;-0.57
9547;-0.555
9548;-0.54
9549;-0.53
9550;-0.53
9551;-0.55
9552;-0.55
9553;-0.545
9554;-0.53
9555;-0.53
9556;-0.525
9557;-0.515
9558;-0.525
9559;-0.495
9560;-0.49
9561;-0.49
9562;-0.51
9563;-0.505
9564;-0.51
9565;-0.5
9566;-0.47
9567;-0.465
9568;-0.46
9569;-0.465
9570;-0.475
9571;-0.465
9572;-0.43
9573;-0.42
9574;-0.41
9575;-0.41
9576;-0.415
9577;-0.405
9578;-0.385
9579;-0.37
9580;-0.37
9581;-0.385
9582;-0.365
9583;-0.35
9584;-0.33
9585;-0.305
9586;-0.305
9587;-0.32
9588;-0.3
9589;-0.285
9590;-0.265
9591;-0.255
9592;-0.24
9593;-0.235
9594;-0.22
9595;-0.2
9596;-0.175
9597;-0.155
9598;-0.14
9599;-0.14
9600;-0.14
9601;-0.11
9602;-0.08
9603;-0.065
9604;-0.065
9605;-0.055
9606;-0.055
9607;-0.035
9608;-0.02
9609;-0.005
9610;-0.015
9611;-0.045
9612;-0.05
9613;-0.035
9614;-0.02
9615;-0.02
9616;-0.02
9617;-0.055
9618;-0.07
9619;-0.08
9620;-0.085
9621;-0.09
9622;-0.1
9623;-0.14
9624;-0.175
9625;-0.18
9626;-0.18
9627;-0.195
9628;-0.215
9629;-0.235
9630;-0.265
9631;-0.27
9632;-0.27
9633;-0.285
9634;-0.32
9635;-0.345
9636;-0.345
9637;-0.345
9638;-0.325
9639;-0.325
9640;-0.35
9641;-0.37
9642;-0.37
9643;-0.385
9644;-0.35
9645;-0.325
9646;-0.34
9647;-0.375
9648;-0.38
9649;-0.365
9650;-0.375
9651;-0.36
9652;-0.345
9653;-0.35
9654;-0.365
9655;-0.375
9656;-0.36
9657;-0.34
9658;-0.355
9659;-0.355
9660;-0.36
9661;-0.34
9662;-0.32
9663;-0.32
9664;-0.335
9665;-0.345
9666;-0.32
9667;-0.305
9668;-0.29
9669;-0.295
9670;-0.31
9671;-0.325
9672;-0.335
9673;-0.335
9674;-0.32
9675;-0.285
9676;-0.275
9677;-0.28
9678;-0.305
9679;-0.32
9680;-0.305
9681;-0.29
9682;-0.285
9683;-0.315
9684;-0.31
9685;-0.31
9686;-0.295
9687;-0.285
9688;-0.29
9689;-0.305
9690;-0.31
9691;-0.3
9692;-0.295
9693;-0.295
9694;-0.29
9695;-0.325
9696;-0.33
9697;-0.335
9698;-0.315
9699;-0.32
9700;-0.315
9701;-0.32
9702;-0.32
9703;-0.325
9704;-0.32
9705;-0.325
9706;-0.33
9707;-0.35
9708;-0.355
9709;-0.345
9710;-0.33
9711;-0.33
9712;-0.325
9713;-0.335
9714;-0.33
9715;-0.31
9716;-0.275
9717;-0.255
9718;-0.25
9719;-0.25
9720;-0.24
9721;-0.225
9722;-0.19
9723;-0.16
9724;-0.14
9725;-0.1
9726;-0.075
9727;-0.025
9728;0.01
9729;0.005
9730;-0.02
9731;-0.025
9732;-0.015
9733;-0.015
9734;-0.03
9735;-0.065
9736;-0.135
9737;-0.2
9738;-0.225
9739;-0.245
9740;-0.28
9741;-0.3
9742;-0.34
9743;-0.385
9744;-0.41
9745;-0.405
9746;-0.405
9747;-0.38
9748;-0.39
9749;-0.42
9750;-0.42
9751;-0.41
9752;-0.4
9753;-0.39
9754;-0.405
9755;-0.43
9756;-0.44
9757;-0.46
9758;-0.49
9759;-0.555
9760;-0.615
9761;-0.61
9762;-0.48
9763;-0.185
9764;0.275
9765;0.86
9766;1.4
9767;1.765
9768;1.94
9769;2.015
9770;2.005
9771;1.895
9772;1.58
9773;1.02
9774;0.38
9775;-0.26
9776;-0.815
9777;-0.71
9778;-0.52
9779;-0.465
9780;-0.49
9781;-0.51
9782;-0.495
9783;-0.485
9784;-0.48
9785;-0.52
9786;-0.555
9787;-0.555
9788;-0.53
9789;-0.53
9790;-0.54
9791;-0.575
9792;-0.585
9793;-0.575
9794;-0.575
9795;-0.57
9796;-0.575
9797;-0.585
9798;-0.585
9799;-0.585
9800;-0.57
9801;-0.565
9802;-0.57
9803;-0.56
9804;-0.58
9805;-0.565
9806;-0.545
9807;-0.545
9808;-0.545
9809;-0.575
9810;-0.575
9811;-0.565
9812;-0.55
9813;-0.525
9814;-0.53
9815;-0.53
9816;-0.535
9817;-0.535
9818;-0.525
9819;-0.51
9820;-0.515
9821;-0.515
9822;-0.525
9823;-0.505
9824;-0.49
9825;-0.495
9826;-0.485
9827;-0.49
9828;-0.48
9829;-0.46
9830;-0.445
9831;-0.445
9832;-0.44
9833;-0.435
9834;-0.44
9835;-0.42
9836;-0.4
9837;-0.385
9838;-0.375
9839;-0.375
9840;-0.36
9841;-0.355
9842;-0.32
9843;-0.3
9844;-0.29
9845;-0.3
9846;-0.28
9847;-0.255
9848;-0.235
9849;-0.21
9850;-0.215
9851;-0.22
9852;-0.195
9853;-0.165
9854;-0.14
9855;-0.135
9856;-0.12
9857;-0.125
9858;-0.11
9859;-0.09
9860;-0.07
9861;-0.065
9862;-0.065
9863;-0.08
9864;-0.1
9865;-0.095
9866;-0.085
9867;-0.09
9868;-0.125
9869;-0.12
9870;-0.145
9871;-0.14
9872;-0.145
9873;-0.165
9874;-0.19
9875;-0.215
9876;-0.245
9877;-0.25
9878;-0.26
9879;-0.27
9880;-0.3
9881;-0.315
9882;-0.325
9883;-0.34
9884;-0.35
9885;-0.365
9886;-0.38
9887;-0.41
9888;-0.415
9889;-0.42
9890;-0.41
9891;-0.42
9892;-0.43
9893;-0.445
9894;-0.45
9895;-0.445
9896;-0.43
9897;-0.435
9898;-0.455
9899;-0.46
9900;-0.465
9901;-0.46
9902;-0.44
9903;-0.435
9904;-0.445
9905;-0.45
9906;-0.465
9907;-0.455
9908;-0.44
9909;-0.425
9910;-0.44
9911;-0.435
9912;-0.455
9913;-0.445
9914;-0.425
9915;-0.41
9916;-0.41
9917;-0.415
9918;-0.42
9919;-0.415
9920;-0.405
9921;-0.39
9922;-0.395
9923;-0.41
9924;-0.42
9925;-0.415
9926;-0.39
9927;-0.38
9928;-0.385
9929;-0.395
9930;-0.395
9931;-0.37
9932;-0.39
9933;-0.37
9934;-0.38
9935;-0.39
9936;-0.385
9937;-0.385
9938;-0.375
9939;-0.38
9940;-0.39
9941;-0.4
9942;-0.42
9943;-0.395
9944;-0.385
9945;-0.375
9946;-0.38
9947;-0.395
9948;-0.4
9949;-0.395
9950;-0.38
9951;-0.37
9952;-0.39
9953;-0.395
9954;-0.4
9955;-0.4
9956;-0.395
9957;-0.395
9958;-0.395
9959;-0.435
9960;-0.415
9961;-0.405
9962;-0.405
9963;-0.405
9964;-0.415
9965;-0.43
9966;-0.435
9967;-0.42
9968;-0.405
9969;-0.41
9970;-0.425
9971;-0.445
9972;-0.455
9973;-0.435
9974;-0.425
9975;-0.41
9976;-0.42
9977;-0.425
9978;-0.445
9979;-0.415
9980;-0.41
9981;-0.395
9982;-0.41
9983;-0.415
9984;-0.405
9985;-0.395
9986;-0.38
9987;-0.34
9988;-0.32
9989;-0.32
9990;-0.31
9991;-0.295
9992;-0.27
9993;-0.25
9994;-0.23
9995;-0.21
9996;-0.15
9997;-0.09
9998;-0.055
9999;-0.03
10000;-0.05
10001;-0.075
10002;-0.06
10003;-0.045
10004;-0.03
10005;-0.065
10006;-0.125
10007;-0.215
10008;-0.255
10009;-0.27
10010;-0.305
10011;-0.325
10012;-0.385
10013;-0.425
10014;-0.46
10015;-0.445
10016;-0.44
10017;-0.44
10018;-0.445
10019;-0.46
10020;-0.465
10021;-0.455
10022;-0.455
10023;-0.445
10024;-0.45
10025;-0.465
10026;-0.465
10027;-0.485
10028;-0.525
10029;-0.565
10030;-0.555
10031;-0.485
10032;-0.275
10033;0.09
10034;0.6
10035;1.135
10036;1.55
10037;1.8
10038;1.915
10039;1.965
10040;1.935
10041;1.74
10042;1.35
10043;0.74
10044;0.1
10045;-0.54
10046;-0.845
10047;-0.75
10048;-0.58
10049;-0.515
10050;-0.535
10051;-0.53
10052;-0.515
10053;-0.49
10054;-0.485
10055;-0.51
10056;-0.525
10057;-0.53
10058;-0.51
10059;-0.53
10060;-0.515
10061;-0.54
10062;-0.55
10063;-0.54
10064;-0.54
10065;-0.545
10066;-0.54
10067;-0.53
10068;-0.54
10069;-0.525
10070;-0.51
10071;-0.505
10072;-0.515
10073;-0.53
10074;-0.53
10075;-0.535
10076;-0.525
10077;-0.505
10078;-0.5
10079;-0.515
10080;-0.52
10081;-0.5
10082;-0.475
10083;-0.47
10084;-0.48
10085;-0.49
10086;-0.49
10087;-0.475
10088;-0.43
10089;-0.43
10090;-0.42
10091;-0.425
10092;-0.435
10093;-0.43
10094;-0.4
10095;-0.39
10096;-0.4
10097;-0.425
10098;-0.41
10099;-0.395
10100;-0.365
10101;-0.35
10102;-0.335
10103;-0.34
10104;-0.34
10105;-0.32
10106;-0.305
10107;-0.285
10108;-0.28
10109;-0.29
10110;-0.275
10111;-0.25
10112;-0.225
10113;-0.215
10114;-0.2
10115;-0.21
10116;-0.2
10117;-0.175
10118;-0.135
10119;-0.1
10120;-0.105
10121;-0.1
10122;-0.085
10123;-0.075
10124;-0.04
10125;-0.015
10126;-0.01
10127;-0.005
10128;0.025
10129;0.04
10130;0.07
10131;0.09
10132;0.09
10133;0.075
10134;0.085
10135;0.09
10136;0.1
10137;0.11
10138;0.105
10139;0.09
10140;0.075
10141;0.075
10142;0.08
10143;0.085
10144;0.07
10145;0.045
10146;0.025
10147;0.025
10148;0.005
10149;-0.025
10150;-0.06
10151;-0.08
10152;-0.1
10153;-0.09
10154;-0.105
10155;-0.125
10156;-0.145
10157;-0.18
10158;-0.2
10159;-0.22
10160;-0.22
10161;-0.245
10162;-0.255
10163;-0.29
10164;-0.305
10165;-0.31
10166;-0.29
10167;-0.305
10168;-0.325
10169;-0.345
10170;-0.355
10171;-0.345
10172;-0.34
10173;-0.355
10174;-0.355
10175;-0.38
10176;-0.385
10177;-0.375
10178;-0.375
10179;-0.375
10180;-0.395
10181;-0.43
10182;-0.415
10183;-0.42
10184;-0.4
10185;-0.39
10186;-0.4
10187;-0.415
10188;-0.405
10189;-0.395
10190;-0.375
10191;-0.37
10192;-0.38
10193;-0.395
10194;-0.4
10195;-0.39
10196;-0.38
10197;-0.37
10198;-0.37
10199;-0.38
10200;-0.385
10201;-0.365
10202;-0.355
10203;-0.34
10204;-0.345
10205;-0.35
10206;-0.36
10207;-0.345
10208;-0.33
10209;-0.32
10210;-0.325
10211;-0.34
10212;-0.335
10213;-0.32
10214;-0.31
10215;-0.325
10216;-0.31
10217;-0.34
10218;-0.335
10219;-0.32
10220;-0.315
10221;-0.32
10222;-0.34
10223;-0.34
10224;-0.35
10225;-0.345
10226;-0.335
10227;-0.345
10228;-0.36
10229;-0.385
10230;-0.39
10231;-0.39
10232;-0.375
10233;-0.365
10234;-0.39
10235;-0.405
10236;-0.42
10237;-0.42
10238;-0.43
10239;-0.41
10240;-0.42
10241;-0.44
10242;-0.44
10243;-0.455
10244;-0.445
10245;-0.435
10246;-0.45
10247;-0.45
10248;-0.45
10249;-0.455
10250;-0.445
10251;-0.445
10252;-0.465
10253;-0.475
10254;-0.47
10255;-0.465
10256;-0.43
10257;-0.43
10258;-0.42
10259;-0.435
10260;-0.425
10261;-0.41
10262;-0.38
10263;-0.355
10264;-0.35
10265;-0.36
10266;-0.35
10267;-0.325
10268;-0.3
10269;-0.265
10270;-0.22
10271;-0.19
10272;-0.17
10273;-0.15
10274;-0.125
10275;-0.135
10276;-0.16
10277;-0.145
10278;-0.145
10279;-0.16
10280;-0.185
10281;-0.23
10282;-0.285
10283;-0.335
10284;-0.375
10285;-0.375
10286;-0.4
10287;-0.43
10288;-0.465
10289;-0.485
10290;-0.5
10291;-0.51
10292;-0.51
10293;-0.505
10294;-0.505
10295;-0.53
10296;-0.535
10297;-0.525
10298;-0.515
10299;-0.515
10300;-0.525
10301;-0.545
10302;-0.58
10303;-0.6
10304;-0.63
10305;-0.66
10306;-0.635
10307;-0.55
10308;-0.35
10309;-0.02
10310;0.435
10311;0.945
10312;1.38
10313;1.67
10314;1.85
10315;1.95
10316;1.94
10317;1.81
10318;1.495
10319;0.965
10320;0.325
10321;-0.315
10322;-0.9
10323;-0.885
10324;-0.725
10325;-0.645
10326;-0.65
10327;-0.66
10328;-0.645
10329;-0.61
10330;-0.605
10331;-0.62
10332;-0.625
10333;-0.635
10334;-0.63
10335;-0.645
10336;-0.65
10337;-0.66
10338;-0.665
10339;-0.66
10340;-0.65
10341;-0.64
10342;-0.65
10343;-0.66
10344;-0.67
10345;-0.66
10346;-0.65
10347;-0.645
10348;-0.66
10349;-0.67
10350;-0.665
10351;-0.65
10352;-0.635
10353;-0.615
10354;-0.63
10355;-0.63
10356;-0.64
10357;-0.63
10358;-0.615
10359;-0.61
10360;-0.625
10361;-0.63
10362;-0.63
10363;-0.605
10364;-0.605
10365;-0.58
10366;-0.57
10367;-0.585
10368;-0.59
10369;-0.57
10370;-0.545
10371;-0.535
10372;-0.54
10373;-0.54
10374;-0.53
10375;-0.535
10376;-0.5
10377;-0.5
10378;-0.485
10379;-0.495
10380;-0.49
10381;-0.465
10382;-0.45
10383;-0.425
10384;-0.415
10385;-0.415
10386;-0.42
10387;-0.385
10388;-0.37
10389;-0.33
10390;-0.32
10391;-0.305
10392;-0.29
10393;-0.265
10394;-0.25
10395;-0.22
10396;-0.19
10397;-0.175
10398;-0.17
10399;-0.14
10400;-0.095
10401;-0.075
10402;-0.055
10403;-0.055
10404;-0.045
10405;-0.015
10406;0.01
10407;0.035
10408;0.045
10409;0.03
10410;0.045
10411;0.05
10412;0.07
10413;0.08
10414;0.065
10415;0.035
10416;0.03
10417;0.03
10418;0.03
10419;0.025
10420;0.01
10421;-0.02
10422;-0.065
10423;-0.075
10424;-0.08
10425;-0.095
10426;-0.115
10427;-0.14
10428;-0.165
10429;-0.18
10430;-0.18
10431;-0.185
10432;-0.2
10433;-0.235
10434;-0.25
10435;-0.25
10436;-0.245
10437;-0.25
10438;-0.255
10439;-0.28
10440;-0.295
10441;-0.295
10442;-0.28
10443;-0.285
10444;-0.29
10445;-0.31
10446;-0.32
10447;-0.31
10448;-0.325
10449;-0.3
10450;-0.33
10451;-0.33
10452;-0.31
10453;-0.33
10454;-0.315
10455;-0.31
10456;-0.31
10457;-0.32
10458;-0.33
10459;-0.31
10460;-0.285
10461;-0.27
10462;-0.295
10463;-0.29
10464;-0.295
10465;-0.28
10466;-0.265
10467;-0.25
10468;-0.26
10469;-0.27
10470;-0.25
10471;-0.23
10472;-0.22
10473;-0.21
10474;-0.215
10475;-0.22
10476;-0.215
10477;-0.205
10478;-0.195
10479;-0.185
10480;-0.19
10481;-0.195
10482;-0.2
10483;-0.195
10484;-0.19
10485;-0.175
10486;-0.18
10487;-0.2
10488;-0.205
10489;-0.185
10490;-0.17
10491;-0.17
10492;-0.185
10493;-0.195
10494;-0.2
10495;-0.21
10496;-0.2
10497;-0.195
10498;-0.2
10499;-0.215
10500;-0.22
10501;-0.205
10502;-0.19
10503;-0.19
10504;-0.215
10505;-0.22
10506;-0.23
10507;-0.245
10508;-0.235
10509;-0.22
10510;-0.225
10511;-0.245
10512;-0.27
10513;-0.245
10514;-0.245
10515;-0.235
10516;-0.25
10517;-0.27
10518;-0.28
10519;-0.275
10520;-0.25
10521;-0.25
10522;-0.28
10523;-0.275
10524;-0.3
10525;-0.275
10526;-0.255
10527;-0.23
10528;-0.24
10529;-0.23
10530;-0.2
10531;-0.18
10532;-0.15
10533;-0.135
10534;-0.13
10535;-0.13
10536;-0.125
10537;-0.08
10538;-0.035
10539;0.005
10540;0.025
10541;0.005
10542;-0.005
10543;-0.005
10544;0
10545;0.015
10546;-0.01
10547;-0.04
10548;-0.11
10549;-0.14
10550;-0.17
10551;-0.19
10552;-0.22
10553;-0.255
10554;-0.315
10555;-0.315
10556;-0.325
10557;-0.345
10558;-0.36
10559;-0.37
10560;-0.375
10561;-0.38
10562;-0.365
10563;-0.355
10564;-0.375
10565;-0.38
10566;-0.39
10567;-0.38
10568;-0.375
10569;-0.37
10570;-0.39
10571;-0.425
10572;-0.485
10573;-0.51
10574;-0.485
10575;-0.375
10576;-0.19
10577;0.115
10578;0.575
10579;1.09
10580;1.52
10581;1.825
10582;1.975
10583;1.995
10584;1.94
10585;1.79
10586;1.505
10587;1
10588;0.36
10589;-0.28
10590;-0.675
10591;-0.665
10592;-0.505
10593;-0.43
10594;-0.44
10595;-0.46
10596;-0.475
10597;-0.47
10598;-0.455
10599;-0.43
10600;-0.46
10601;-0.49
10602;-0.505
10603;-0.51
10604;-0.49
10605;-0.5
10606;-0.505
10607;-0.52
10608;-0.535
10609;-0.52
10610;-0.51
10611;-0.495
10612;-0.51
10613;-0.505
10614;-0.52
10615;-0.52
10616;-0.51
10617;-0.505
10618;-0.49
10619;-0.51
10620;-0.51
10621;-0.485
10622;-0.47
10623;-0.465
10624;-0.48
10625;-0.49
10626;-0.495
10627;-0.485
10628;-0.46
10629;-0.46
10630;-0.465
10631;-0.48
10632;-0.48
10633;-0.475
10634;-0.445
10635;-0.44
10636;-0.45
10637;-0.45
10638;-0.445
10639;-0.425
10640;-0.415
10641;-0.405
10642;-0.41
10643;-0.405
10644;-0.41
10645;-0.37
10646;-0.36
10647;-0.35
10648;-0.345
10649;-0.355
10650;-0.35
10651;-0.33
10652;-0.305
10653;-0.285
10654;-0.305
10655;-0.285
10656;-0.275
10657;-0.25
10658;-0.235
10659;-0.215
10660;-0.205
10661;-0.2
10662;-0.185
10663;-0.155
10664;-0.13
10665;-0.1
10666;-0.085
