4.151254819
4.151254819
4.138945687
4.138945687
4.132791121
4.132791121
4.138945687
4.138945687
4.123559272
4.123559272
4.102018291
4.102018291
4.102018291
4.102018291
4.11125014
4.11125014
4.108172857
4.108172857
4.083554593
4.083554593
4.098941008
4.098941008
4.086631876
4.086631876
4.077400026
4.077400026
4.080477309
4.080477309
4.086631876
4.086631876
4.086631876
4.098941008
4.098941008
4.077400026
4.077400026
4.07124546
4.07124546
4.077400026
4.077400026
4.080477309
4.080477309
4.080477309
4.080477309
4.083554593
4.083554593
4.074322743
4.074322743
4.07124546
4.07124546
4.083554593
4.083554593
4.083554593
4.083554593
4.083554593
4.083554593
4.077400026
4.077400026
4.062013611
4.062013611
4.062013611
4.062013611
4.077400026
4.077400026
4.074322743
4.074322743
4.065090894
4.065090894
4.07124546
4.07124546
4.07124546
4.077400026
4.077400026
4.074322743
4.074322743
4.07124546
4.07124546
4.068168177
4.068168177
4.068168177
4.068168177
4.074322743
4.074322743
4.077400026
4.077400026
4.07124546
4.07124546
4.068168177
4.068168177
4.068168177
4.068168177
4.065090894
4.065090894
4.068168177
4.068168177
4.080477309
4.080477309
4.098941008
4.098941008
4.07124546
4.07124546
4.065090894
4.065090894
4.065090894
4.065090894
4.077400026
4.077400026
4.068168177
4.068168177
4.074322743
4.074322743
4.074322743
4.062013611
4.062013611
4.068168177
4.068168177
4.068168177
4.068168177
4.065090894
4.065090894
4.055859045
4.055859045
4.07124546
4.07124546
4.083554593
4.083554593
4.07124546
4.07124546
4.07124546
4.07124546
4.074322743
4.074322743
4.074322743
4.074322743
4.083554593
4.083554593
4.074322743
4.074322743
4.052781762
4.052781762
4.058936328
4.058936328
4.065090894
4.065090894
4.07124546
4.07124546
4.077400026
4.077400026
4.07124546
4.07124546
4.07124546
4.058936328
4.058936328
4.07124546
4.07124546
4.07124546
4.07124546
4.089709159
4.089709159
4.092786442
4.092786442
4.052781762
4.052781762
4.065090894
4.065090894
4.07124546
4.07124546
4.07124546
4.07124546
4.068168177
4.068168177
4.062013611
4.062013611
4.068168177
4.068168177
4.074322743
4.074322743
4.080477309
4.080477309
4.07124546
4.07124546
4.055859045
4.055859045
4.058936328
4.058936328
4.07124546
4.07124546
4.068168177
4.068168177
4.068168177
4.065090894
4.065090894
4.074322743
4.074322743
4.077400026
4.077400026
4.089709159
4.089709159
4.074322743
4.074322743
4.062013611
4.062013611
4.07124546
4.07124546
4.074322743
4.074322743
4.074322743
4.074322743
4.074322743
4.074322743
4.07124546
4.07124546
4.074322743
4.074322743
4.07124546
4.07124546
4.068168177
4.068168177
4.065090894
4.065090894
4.068168177
4.068168177
4.089709159
4.089709159
4.077400026
4.077400026
4.068168177
4.068168177
4.068168177
4.058936328
4.058936328
4.077400026
4.077400026
4.068168177
4.068168177
4.062013611
4.062013611
4.07124546
4.07124546
4.068168177
4.068168177
4.065090894
4.065090894
4.068168177
4.068168177
4.07124546
4.07124546
4.074322743
4.074322743
4.074322743
4.074322743
4.074322743
4.074322743
4.083554593
4.083554593
4.077400026
4.077400026
4.074322743
4.074322743
4.065090894
4.065090894
4.062013611
4.062013611
4.07124546
4.07124546
4.080477309
4.080477309
4.074322743
4.074322743
4.074322743
4.068168177
4.068168177
4.055859045
4.055859045
4.055859045
4.055859045
4.074322743
4.074322743
4.080477309
4.080477309
4.07124546
4.07124546
4.065090894
4.065090894
4.065090894
4.065090894
4.07124546
4.07124546
4.077400026
4.077400026
4.074322743
4.074322743
4.074322743
4.074322743
4.065090894
4.065090894
4.068168177
4.068168177
4.074322743
4.074322743
4.068168177
4.068168177
4.062013611
4.062013611
4.077400026
4.077400026
4.083554593
4.083554593
4.083554593
4.077400026
4.077400026
4.058936328
4.058936328
4.062013611
4.062013611
4.074322743
4.074322743
4.077400026
4.077400026
4.065090894
4.065090894
4.068168177
4.068168177
4.077400026
4.077400026
4.07124546
4.07124546
4.077400026
4.077400026
4.068168177
4.068168177
4.065090894
4.065090894
4.062013611
4.062013611
4.068168177
4.068168177
4.07124546
4.07124546
4.074322743
4.074322743
4.074322743
4.074322743
4.062013611
4.062013611
4.065090894
4.065090894
4.065090894
4.068168177
4.068168177
4.07124546
4.07124546
4.077400026
4.077400026
4.07124546
4.07124546
4.062013611
4.062013611
4.062013611
4.062013611
4.074322743
4.074322743
4.080477309
4.080477309
4.065090894
4.065090894
4.065090894
4.065090894
4.07124546
4.07124546
4.074322743
4.074322743
4.07124546
4.07124546
4.065090894
4.065090894
4.080477309
4.080477309
4.083554593
4.083554593
4.089709159
4.089709159
4.062013611
4.062013611
4.058936328
4.058936328
4.062013611
4.062013611
4.062013611
4.074322743
4.074322743
4.080477309
4.080477309
4.080477309
4.080477309
4.068168177
4.068168177
4.068168177
4.068168177
4.068168177
4.068168177
4.068168177
4.068168177
4.077400026
4.077400026
4.086631876
4.086631876
4.065090894
4.065090894
4.065090894
4.065090894
4.092786442
4.092786442
4.055859045
4.055859045
4.055859045
4.055859045
4.065090894
4.065090894
4.07124546
4.07124546
4.074322743
4.074322743
4.074322743
4.074322743
4.07124546
4.07124546
4.07124546
4.07124546
4.07124546
4.074322743
4.074322743
4.086631876
4.086631876
4.089709159
4.089709159
4.074322743
4.074322743
4.055859045
4.055859045
4.068168177
4.068168177
4.074322743
4.074322743
4.07124546
4.07124546
4.068168177
4.068168177
4.068168177
4.068168177
4.07124546
4.07124546
4.086631876
4.086631876
4.086631876
4.086631876
4.065090894
4.065090894
4.068168177
4.068168177
4.07124546
4.07124546
4.080477309
4.080477309
4.077400026
4.077400026
4.077400026
4.074322743
4.074322743
4.077400026
4.077400026
4.068168177
4.068168177
4.068168177
4.068168177
4.068168177
4.068168177
4.068168177
4.068168177
4.068168177
4.068168177
4.074322743
4.074322743
4.077400026
4.077400026
4.07124546
4.07124546
4.07124546
4.07124546
4.083554593
4.083554593
4.102018291
4.102018291
4.074322743
4.074322743
4.058936328
4.058936328
4.068168177
4.068168177
4.07124546
4.07124546
4.083554593
4.083554593
4.074322743
4.074322743
4.074322743
4.068168177
4.068168177
4.077400026
4.077400026
4.07124546
4.07124546
4.077400026
4.077400026
4.092786442
4.092786442
4.077400026
4.077400026
4.065090894
4.065090894
4.068168177
4.068168177
4.074322743
4.074322743
4.080477309
4.080477309
4.077400026
4.077400026
4.074322743
4.074322743
4.086631876
4.086631876
4.077400026
4.077400026
4.077400026
4.077400026
4.074322743
4.074322743
4.068168177
4.068168177
4.068168177
4.068168177
4.092786442
4.092786442
4.123559272
4.123559272
4.123559272
4.083554593
4.083554593
4.046627196
4.046627196
4.052781762
4.052781762
4.065090894
4.065090894
4.07124546
4.07124546
4.080477309
4.080477309
4.065090894
4.065090894
4.062013611
4.062013611
4.080477309
4.080477309
4.086631876
4.086631876
4.074322743
4.074322743
4.068168177
4.068168177
4.07124546
4.07124546
4.083554593
4.083554593
4.074322743
4.074322743
4.07124546
4.07124546
4.068168177
4.068168177
4.074322743
4.074322743
4.086631876
4.086631876
4.086631876
4.077400026
4.077400026
4.065090894
4.065090894
4.074322743
4.074322743
4.083554593
4.083554593
4.083554593
4.083554593
4.092786442
4.092786442
4.074322743
4.074322743
4.062013611
4.062013611
4.080477309
4.080477309
4.089709159
4.089709159
4.080477309
4.080477309
4.092786442
4.092786442
4.083554593
4.083554593
4.052781762
4.052781762
4.07124546
4.07124546
4.074322743
4.074322743
4.07124546
4.07124546
4.07124546
4.07124546
4.074322743
4.074322743
4.074322743
4.077400026
4.077400026
4.080477309
4.080477309
4.083554593
4.083554593
4.077400026
4.077400026
4.074322743
4.074322743
4.074322743
4.074322743
4.077400026
4.077400026
4.080477309
4.080477309
4.080477309
4.080477309
4.095863725
4.095863725
4.080477309
4.080477309
4.062013611
4.062013611
4.068168177
4.068168177
4.068168177
4.068168177
4.080477309
4.080477309
4.089709159
4.089709159
4.098941008
4.098941008
4.068168177
4.068168177
4.062013611
4.062013611
4.074322743
4.074322743
4.074322743
4.07124546
4.07124546
4.07124546
4.07124546
4.074322743
4.074322743
4.074322743
4.074322743
4.074322743
4.074322743
4.077400026
4.077400026
4.077400026
4.077400026
4.083554593
4.083554593
4.083554593
4.083554593
4.068168177
4.068168177
4.077400026
4.077400026
4.07124546
4.07124546
4.07124546
4.07124546
4.083554593
4.083554593
4.077400026
4.077400026
4.074322743
4.074322743
4.077400026
4.077400026
4.086631876
4.086631876
4.065090894
4.065090894
4.065090894
4.07124546
4.07124546
4.080477309
4.080477309
4.086631876
4.086631876
4.07124546
4.07124546
4.065090894
4.065090894
4.086631876
4.086631876
4.077400026
4.077400026
4.068168177
4.068168177
4.074322743
4.074322743
4.068168177
4.068168177
4.07124546
4.07124546
4.077400026
4.077400026
4.077400026
4.077400026
4.07124546
4.07124546
4.068168177
4.068168177
4.086631876
4.086631876
4.095863725
4.095863725
4.077400026
4.077400026
4.068168177
4.068168177
4.068168177
4.068168177
4.068168177
4.074322743
4.074322743
4.074322743
4.074322743
4.077400026
4.077400026
4.086631876
4.086631876
4.102018291
4.102018291
4.074322743
4.074322743
4.062013611
4.062013611
4.065090894
4.065090894
4.065090894
4.065090894
4.068168177
4.068168177
4.07124546
4.07124546
4.077400026
4.077400026
4.080477309
4.080477309
4.086631876
4.086631876
4.07124546
4.07124546
4.062013611
4.062013611
4.080477309
4.080477309
4.080477309
4.080477309
4.080477309
4.077400026
4.077400026
4.077400026
4.077400026
4.077400026
4.077400026
4.077400026
4.077400026
4.07124546
4.07124546
4.074322743
4.074322743
4.074322743
4.074322743
4.068168177
4.068168177
4.080477309
4.080477309
4.086631876
4.086631876
4.086631876
4.086631876
4.080477309
4.080477309
4.068168177
4.068168177
4.07124546
4.07124546
4.07124546
4.07124546
4.068168177
4.068168177
4.077400026
4.077400026
4.07124546
4.07124546
4.077400026
4.077400026
4.077400026
4.077400026
4.077400026
4.074322743
4.074322743
4.07124546
4.07124546
4.080477309
4.080477309
4.080477309
4.080477309
4.083554593
4.083554593
4.102018291
4.102018291
4.07124546
4.07124546
4.058936328
4.058936328
4.07124546
4.07124546
4.077400026
4.077400026
4.07124546
4.07124546
4.07124546
4.07124546
4.07124546
4.07124546
4.074322743
4.074322743
4.089709159
4.089709159
4.077400026
4.077400026
4.058936328
4.058936328
4.07124546
4.07124546
4.077400026
4.077400026
4.077400026
4.077400026
4.077400026
4.07124546
4.07124546
4.07124546
4.07124546
4.074322743
4.074322743
4.083554593
4.083554593
4.089709159
4.089709159
4.07124546
4.07124546
4.083554593
4.083554593
4.089709159
4.089709159
4.055859045
4.055859045
4.068168177
4.068168177
4.068168177
4.068168177
4.068168177
4.068168177
4.077400026
4.077400026
4.095863725
4.095863725
4.068168177
4.068168177
4.058936328
4.058936328
4.068168177
4.068168177
4.07124546
4.07124546
4.07124546
4.077400026
4.077400026
4.086631876
4.086631876
4.083554593
4.083554593
4.068168177
4.068168177
4.068168177
4.068168177
4.077400026
4.077400026
4.074322743
4.074322743
4.07124546
4.07124546
4.07124546
4.07124546
4.077400026
4.077400026
4.086631876
4.086631876
4.077400026
4.077400026
4.083554593
4.083554593
4.077400026
4.077400026
4.058936328
4.058936328
4.07124546
4.07124546
4.074322743
4.074322743
4.089709159
4.089709159
4.092786442
4.092786442
4.077400026
4.077400026
4.077400026
4.068168177
4.068168177
4.062013611
4.062013611
4.065090894
4.065090894
4.068168177
4.068168177
4.07124546
4.07124546
4.07124546
4.07124546
4.080477309
4.080477309
4.083554593
4.083554593
4.07124546
4.07124546
4.080477309
4.080477309
4.083554593
4.083554593
4.055859045
4.055859045
4.058936328
4.058936328
4.074322743
4.074322743
4.080477309
4.080477309
4.074322743
4.074322743
4.07124546
4.07124546
4.077400026
4.077400026
4.074322743
4.074322743
4.074322743
4.083554593
4.083554593
4.077400026
4.077400026
4.068168177
4.068168177
4.077400026
4.077400026
4.092786442
4.092786442
4.074322743
4.074322743
4.058936328
4.058936328
4.07124546
4.07124546
4.07124546
4.07124546
4.07124546
4.07124546
4.07124546
4.07124546
4.074322743
4.074322743
4.077400026
4.077400026
4.068168177
4.068168177
4.068168177
4.068168177
4.083554593
4.083554593
4.077400026
4.077400026
4.07124546
4.07124546
4.07124546
4.07124546
4.07124546
4.07124546
4.07124546
4.077400026
4.077400026
4.083554593
4.083554593
4.07124546
4.07124546
4.065090894
4.065090894
4.065090894
4.065090894
4.080477309
4.080477309
4.092786442
4.092786442
4.068168177
4.068168177
4.077400026
4.077400026
4.07124546
4.07124546
4.07124546
4.07124546
4.080477309
4.080477309
4.102018291
4.102018291
4.095863725
4.095863725
4.049704479
4.049704479
4.065090894
4.065090894
4.074322743
4.074322743
4.07124546
4.07124546
4.07124546
4.065090894
4.065090894
4.068168177
4.068168177
4.07124546
4.07124546
4.077400026
4.077400026
4.074322743
4.074322743
4.077400026
4.077400026
4.077400026
4.077400026
4.080477309
4.080477309
4.077400026
4.077400026
4.068168177
4.068168177
4.068168177
4.068168177
4.07124546
4.07124546
4.077400026
4.077400026
4.086631876
4.086631876
4.086631876
4.086631876
4.062013611
4.062013611
4.065090894
4.065090894
4.080477309
4.080477309
4.086631876
4.086631876
4.083554593
4.083554593
4.083554593
4.052781762
4.052781762
4.062013611
4.062013611
4.07124546
4.07124546
4.095863725
4.095863725
4.077400026
4.077400026
4.052781762
4.052781762
4.062013611
4.062013611
4.074322743
4.074322743
4.092786442
4.092786442
4.07124546
4.07124546
4.062013611
4.062013611
4.065090894
4.065090894
4.068168177
4.068168177
4.07124546
4.07124546
4.089709159
4.089709159
4.089709159
4.089709159
4.055859045
4.055859045
4.068168177
4.068168177
4.080477309
4.080477309
4.080477309
4.083554593
4.083554593
4.077400026
4.077400026
4.058936328
4.058936328
4.077400026
4.077400026
4.077400026
4.077400026
4.065090894
4.065090894
4.07124546
4.07124546
4.068168177
4.068168177
4.077400026
4.077400026
4.089709159
4.089709159
4.062013611
4.062013611
4.055859045
4.055859045
4.065090894
4.065090894
4.086631876
4.086631876
4.074322743
4.074322743
4.068168177
4.068168177
4.07124546
4.07124546
4.07124546
4.07124546
4.077400026
4.077400026
4.077400026
4.089709159
4.089709159
4.083554593
4.083554593
4.068168177
4.068168177
4.068168177
4.068168177
4.065090894
4.065090894
4.077400026
4.077400026
4.07124546
4.07124546
4.07124546
4.07124546
4.068168177
4.068168177
4.077400026
4.077400026
4.098941008
4.098941008
4.074322743
4.074322743
4.052781762
4.052781762
4.055859045
4.055859045
4.077400026
4.077400026
4.092786442
4.092786442
4.065090894
4.065090894
4.062013611
4.062013611
4.065090894
4.065090894
4.074322743
4.074322743
4.074322743
4.077400026
4.077400026
4.083554593
4.083554593
4.077400026
4.077400026
4.062013611
4.062013611
4.065090894
4.065090894
4.077400026
4.077400026
4.077400026
4.077400026
4.083554593
4.083554593
4.065090894
4.065090894
4.068168177
4.068168177
4.083554593
4.083554593
4.089709159
4.089709159
4.065090894
4.065090894
4.062013611
4.062013611
4.068168177
4.068168177
4.080477309
4.080477309
4.086631876
4.086631876
4.055859045
4.055859045
4.062013611
4.062013611
4.062013611
4.098941008
4.098941008
4.074322743
4.074322743
4.058936328
4.058936328
4.065090894
4.065090894
4.068168177
4.068168177
4.074322743
4.074322743
4.077400026
4.077400026
4.074322743
4.074322743
4.083554593
4.083554593
4.080477309
4.080477309
4.07124546
4.07124546
4.065090894
4.065090894
4.065090894
4.065090894
4.068168177
4.068168177
4.07124546
4.07124546
4.077400026
4.077400026
4.07124546
4.07124546
4.065090894
4.065090894
4.07124546
4.07124546
4.07124546
4.083554593
4.083554593
4.080477309
4.080477309
4.074322743
4.074322743
4.092786442
4.092786442
4.080477309
4.080477309
4.055859045
4.055859045
4.065090894
4.065090894
4.080477309
4.080477309
4.074322743
4.074322743
4.058936328
4.058936328
4.068168177
4.068168177
4.077400026
4.077400026
4.089709159
4.089709159
4.068168177
4.068168177
4.052781762
4.052781762
4.07124546
4.07124546
4.083554593
4.083554593
4.083554593
4.083554593
4.065090894
4.065090894
4.068168177
4.068168177
4.068168177
4.065090894
4.065090894
4.068168177
4.068168177
4.07124546
4.07124546
4.074322743
4.074322743
4.068168177
4.068168177
4.074322743
4.074322743
4.083554593
4.083554593
4.083554593
4.083554593
4.068168177
4.068168177
4.077400026
4.077400026
4.07124546
4.07124546
4.058936328
4.058936328
4.080477309
4.080477309
4.074322743
4.074322743
4.065090894
4.065090894
4.062013611
4.062013611
4.077400026
4.077400026
4.092786442
4.092786442
4.07124546
4.07124546
4.07124546
4.052781762
4.052781762
4.07124546
4.07124546
4.074322743
4.074322743
4.077400026
4.077400026
4.074322743
4.074322743
4.068168177
4.068168177
4.058936328
4.058936328
4.052781762
4.052781762
4.074322743
4.074322743
4.089709159
4.089709159
4.080477309
4.080477309
4.074322743
4.074322743
4.080477309
4.080477309
4.07124546
4.07124546
4.083554593
4.083554593
4.065090894
4.065090894
4.058936328
4.058936328
4.07124546
4.07124546
4.083554593
4.083554593
4.083554593
4.095863725
4.095863725
4.074322743
4.074322743
4.046627196
4.046627196
4.065090894
4.065090894
4.068168177
4.068168177
4.07124546
4.07124546
4.065090894
4.065090894
4.062013611
4.062013611
4.074322743
4.074322743
4.074322743
4.074322743
4.074322743
4.074322743
4.068168177
4.068168177
4.080477309
4.080477309
4.089709159
4.089709159
4.068168177
4.068168177
4.062013611
4.062013611
4.065090894
4.065090894
4.065090894
4.065090894
4.077400026
4.077400026
4.077400026
4.083554593
4.083554593
4.077400026
4.077400026
4.083554593
4.083554593
4.080477309
4.080477309
4.065090894
4.065090894
4.07124546
4.07124546
4.068168177
4.068168177
4.077400026
4.077400026
4.07124546
4.07124546
4.062013611
4.062013611
4.083554593
4.083554593
4.074322743
4.074322743
4.058936328
4.058936328
4.068168177
4.068168177
4.07124546
4.07124546
4.074322743
4.074322743
4.07124546
4.07124546
4.077400026
4.077400026
4.080477309
4.080477309
4.068168177
4.068168177
4.068168177
4.068168177
4.068168177
4.077400026
4.077400026
4.07124546
4.07124546
4.07124546
4.07124546
4.068168177
4.068168177
4.089709159
4.089709159
4.077400026
4.077400026
4.052781762
4.052781762
4.080477309
4.080477309
4.080477309
4.080477309
4.055859045
4.055859045
4.062013611
4.062013611
4.065090894
4.065090894
4.068168177
4.068168177
4.077400026
4.077400026
4.089709159
4.089709159
4.07124546
4.07124546
4.058936328
4.058936328
4.068168177
4.068168177
4.068168177
4.07124546
4.07124546
4.080477309
4.080477309
4.07124546
4.07124546
4.07124546
4.07124546
4.065090894
4.065090894
4.068168177
4.068168177
4.065090894
4.065090894
4.095863725
4.095863725
4.092786442
4.092786442
4.046627196
4.046627196
4.062013611
4.062013611
4.07124546
4.07124546
4.068168177
4.068168177
4.065090894
4.065090894
4.07124546
4.07124546
4.077400026
4.077400026
4.080477309
4.080477309
4.086631876
4.086631876
4.058936328
4.058936328
4.058936328
4.062013611
4.062013611
4.083554593
4.083554593
4.074322743
4.074322743
4.068168177
4.068168177
4.062013611
4.062013611
4.058936328
4.058936328
4.074322743
4.074322743
4.083554593
4.083554593
4.07124546
4.07124546
4.062013611
4.062013611
4.058936328
4.058936328
4.074322743
4.074322743
4.089709159
4.089709159
4.077400026
4.077400026
4.049704479
4.049704479
4.062013611
4.062013611
4.068168177
4.068168177
4.068168177
4.068168177
4.065090894
4.065090894
4.068168177
4.068168177
4.068168177
4.065090894
4.065090894
4.074322743
4.074322743
4.086631876
4.086631876
4.083554593
4.083554593
4.062013611
4.062013611
4.07124546
4.07124546
4.068168177
4.068168177
4.058936328
4.058936328
4.068168177
4.068168177
4.074322743
4.074322743
4.068168177
4.068168177
4.065090894
4.065090894
4.068168177
4.068168177
4.07124546
4.07124546
4.086631876
4.086631876
4.065090894
4.065090894
4.068168177
4.068168177
4.074322743
4.074322743
4.058936328
4.058936328
4.058936328
4.068168177
4.068168177
4.068168177
4.068168177
4.086631876
4.086631876
4.07124546
4.07124546
4.055859045
4.055859045
4.058936328
4.058936328
4.068168177
4.068168177
4.074322743
4.074322743
4.077400026
4.077400026
4.074322743
4.074322743
4.07124546
4.07124546
4.074322743
4.074322743
4.074322743
4.074322743
4.065090894
4.065090894
4.07124546
4.07124546
4.07124546
4.07124546
4.080477309
4.080477309
4.083554593
4.083554593
4.080477309
4.080477309
4.080477309
4.055859045
4.055859045
4.055859045
4.055859045
4.065090894
4.065090894
4.074322743
4.074322743
4.080477309
4.080477309
4.055859045
4.055859045
4.058936328
4.058936328
4.065090894
4.065090894
4.074322743
4.074322743
4.077400026
4.077400026
4.074322743
4.074322743
4.058936328
4.058936328
4.062013611
4.062013611
4.062013611
4.062013611
4.065090894
4.065090894
4.077400026
4.077400026
4.077400026
4.077400026
4.068168177
4.068168177
4.07124546
4.07124546
4.077400026
4.077400026
4.077400026
4.077400026
4.077400026
4.062013611
4.062013611
4.058936328
4.058936328
4.062013611
4.062013611
4.074322743
4.074322743
4.105095574
4.105095574
4.077400026
4.077400026
4.04047263
4.04047263
4.037395347
4.037395347
4.065090894
4.065090894
4.086631876
4.086631876
4.068168177
4.068168177
4.080477309
4.080477309
4.058936328
4.058936328
4.055859045
4.055859045
4.062013611
4.062013611
4.055859045
4.055859045
4.058936328
4.058936328
4.07124546
4.07124546
4.07124546
4.077400026
4.077400026
4.07124546
4.07124546
4.068168177
4.068168177
4.065090894
4.065090894
4.07124546
4.07124546
4.074322743
4.074322743
4.077400026
4.077400026
4.058936328
4.058936328
4.074322743
4.074322743
4.062013611
4.062013611
4.07124546
4.07124546
4.092786442
4.092786442
4.086631876
4.086631876
4.11125014
4.11125014
4.086631876
4.086631876
4.015854366
4.015854366
4.034318064
4.034318064
4.058936328
4.058936328
4.077400026
4.077400026
4.077400026
4.07124546
4.07124546
4.062013611
4.062013611
4.055859045
4.055859045
4.055859045
4.055859045
4.058936328
4.058936328
4.068168177
4.068168177
4.065090894
4.065090894
4.058936328
4.058936328
4.062013611
4.062013611
4.07124546
4.07124546
4.080477309
4.080477309
4.080477309
4.080477309
4.07124546
4.07124546
4.102018291
4.102018291
4.049704479
4.049704479
4.049704479
4.049704479
4.049704479
4.049704479
4.062013611
4.062013611
4.068168177
4.068168177
4.068168177
4.102018291
4.102018291
4.062013611
4.062013611
4.04047263
4.04047263
4.055859045
4.055859045
4.052781762
4.052781762
4.055859045
4.055859045
4.065090894
4.065090894
4.062013611
4.062013611
4.058936328
4.058936328
4.058936328
4.058936328
4.062013611
4.062013611
4.068168177
4.068168177
4.068168177
4.068168177
4.065090894
4.065090894
4.083554593
4.083554593
4.068168177
4.068168177
4.062013611
4.062013611
4.049704479
4.049704479
4.058936328
4.058936328
4.049704479
4.049704479
4.049704479
4.062013611
4.062013611
4.062013611
4.062013611
4.077400026
4.077400026
4.074322743
4.074322743
4.049704479
4.049704479
4.055859045
4.055859045
4.065090894
4.065090894
4.068168177
4.068168177
4.077400026
4.077400026
4.049704479
4.049704479
4.055859045
4.055859045
4.062013611
4.062013611
4.065090894
4.065090894
4.065090894
4.065090894
4.058936328
4.058936328
4.065090894
4.065090894
4.055859045
4.055859045
4.058936328
4.058936328
4.058936328
4.058936328
4.058936328
4.068168177
4.068168177
4.065090894
4.065090894
4.055859045
4.055859045
4.058936328
4.058936328
4.052781762
4.052781762
4.055859045
4.055859045
4.077400026
4.077400026
4.077400026
4.077400026
4.058936328
4.058936328
4.046627196
4.046627196
4.058936328
4.058936328
4.07124546
4.07124546
4.062013611
4.062013611
4.049704479
4.049704479
4.052781762
4.052781762
4.058936328
4.058936328
4.062013611
4.062013611
4.065090894
4.065090894
4.065090894
4.065090894
4.065090894
4.058936328
4.058936328
4.07124546
4.07124546
4.062013611
4.062013611
4.068168177
4.068168177
4.077400026
4.077400026
4.052781762
4.052781762
4.062013611
4.062013611
4.058936328
4.058936328
4.055859045
4.055859045
4.058936328
4.058936328
4.058936328
4.058936328
4.055859045
4.055859045
4.062013611
4.062013611
4.062013611
4.062013611
4.074322743
4.074322743
4.065090894
4.065090894
4.077400026
4.077400026
4.055859045
4.055859045
4.049704479
4.049704479
4.062013611
4.062013611
4.062013611
4.055859045
4.055859045
4.058936328
4.058936328
4.065090894
4.065090894
4.058936328
4.058936328
4.062013611
4.062013611
4.062013611
4.062013611
4.065090894
4.065090894
4.086631876
4.086631876
4.07124546
4.07124546
4.049704479
4.049704479
4.052781762
4.052781762
4.058936328
4.058936328
4.077400026
4.077400026
4.07124546
4.07124546
4.062013611
4.062013611
4.058936328
4.058936328
4.049704479
4.049704479
4.052781762
4.052781762
4.065090894
4.065090894
4.065090894
4.068168177
4.068168177
4.055859045
4.055859045
4.058936328
4.058936328
4.080477309
4.080477309
4.062013611
4.062013611
4.055859045
4.055859045
4.07124546
4.07124546
4.052781762
4.052781762
4.062013611
4.062013611
4.068168177
4.068168177
4.068168177
4.068168177
4.068168177
4.068168177
4.062013611
4.062013611
4.058936328
4.058936328
4.07124546
4.07124546
4.068168177
4.068168177
4.052781762
4.052781762
4.055859045
4.055859045
4.058936328
4.058936328
4.058936328
4.052781762
4.052781762
4.062013611
4.062013611
4.062013611
4.062013611
4.065090894
4.065090894
4.065090894
4.065090894
4.065090894
4.065090894
4.068168177
4.068168177
4.058936328
4.058936328
4.058936328
4.058936328
4.068168177
4.068168177
4.074322743
4.074322743
4.055859045
4.055859045
4.062013611
4.062013611
4.058936328
4.058936328
4.062013611
4.062013611
4.07124546
4.07124546
4.07124546
4.07124546
4.052781762
4.052781762
4.049704479
4.049704479
4.055859045
4.055859045
4.055859045
4.065090894
4.065090894
4.062013611
4.062013611
4.055859045
4.055859045
4.058936328
4.058936328
4.065090894
4.065090894
4.068168177
4.068168177
4.055859045
4.055859045
4.065090894
4.065090894
4.065090894
4.065090894
4.065090894
4.065090894
4.058936328
4.058936328
4.062013611
4.062013611
4.062013611
4.062013611
4.062013611
4.062013611
4.065090894
4.065090894
4.077400026
4.077400026
4.089709159
4.089709159
4.065090894
4.065090894
4.043549913
4.043549913
4.043549913
4.062013611
4.062013611
4.080477309
4.080477309
4.068168177
4.068168177
4.04047263
4.04047263
4.058936328
4.058936328
4.058936328
4.058936328
4.058936328
4.058936328
4.049704479
4.049704479
4.052781762
4.052781762
4.068168177
4.068168177
4.058936328
4.058936328
4.065090894
4.065090894
4.068168177
4.068168177
4.065090894
4.065090894
4.052781762
4.052781762
4.062013611
4.062013611
4.068168177
4.068168177
4.058936328
4.058936328
4.065090894
4.065090894
4.065090894
4.062013611
4.062013611
4.074322743
4.074322743
4.080477309
4.080477309
4.07124546
4.07124546
4.052781762
4.052781762
4.037395347
4.037395347
4.065090894
4.065090894
4.065090894
4.065090894
4.065090894
4.065090894
4.052781762
4.052781762
4.046627196
4.046627196
4.058936328
4.058936328
4.065090894
4.065090894
4.065090894
4.065090894
4.052781762
4.052781762
4.055859045
4.055859045
4.062013611
4.062013611
4.077400026
4.077400026
4.062013611
4.062013611
4.062013611
4.052781762
4.052781762
4.058936328
4.058936328
4.062013611
4.062013611
4.062013611
4.062013611
4.074322743
4.074322743
4.062013611
4.062013611
4.052781762
4.052781762
4.046627196
4.046627196
4.062013611
4.062013611
4.080477309
4.080477309
4.074322743
4.074322743
4.037395347
4.037395347
4.043549913
4.043549913
4.065090894
4.065090894
4.083554593
4.083554593
4.058936328
4.058936328
4.037395347
4.037395347
4.055859045
4.055859045
4.062013611
4.062013611
4.068168177
4.068168177
4.068168177
4.068168177
4.068168177
4.058936328
4.058936328
4.049704479
4.049704479
4.049704479
4.049704479
4.058936328
4.058936328
4.065090894
4.065090894
4.058936328
4.058936328
4.065090894
4.065090894
4.07124546
4.07124546
4.068168177
4.068168177
4.062013611
4.062013611
4.058936328
4.058936328
4.080477309
4.080477309
4.07124546
4.07124546
4.049704479
4.049704479
4.058936328
4.058936328
4.080477309
4.080477309
4.058936328
4.058936328
4.043549913
4.043549913
4.043549913
4.058936328
4.058936328
4.058936328
4.058936328
4.058936328
4.058936328
4.074322743
4.074322743
4.065090894
4.065090894
4.058936328
4.058936328
4.052781762
4.052781762
4.055859045
4.055859045
4.055859045
4.055859045
4.080477309
4.080477309
4.068168177
4.068168177
4.058936328
4.058936328
4.065090894
4.065090894
4.080477309
4.080477309
4.049704479
4.049704479
4.046627196
4.046627196
4.046627196
4.046627196
4.055859045
4.055859045
4.058936328
4.058936328
4.058936328
4.055859045
4.055859045
4.058936328
4.058936328
4.062013611
4.062013611
4.058936328
4.058936328
4.077400026
4.077400026
4.105095574
4.105095574
4.105095574
4.105095574
4.123559272
4.123559272
4.18202765
4.18202765
4.07124546
4.07124546
3.966617837
3.966617837
4.012777083
4.012777083
4.086631876
4.086631876
4.154332102
4.154332102
4.154332102
4.154332102
4.04047263
4.04047263
3.926613158
3.926613158
4.006622517
4.006622517
4.07124546
4.07124546
4.148177536
4.148177536
4.148177536
4.25280516
4.25280516
4.126636555
4.126636555
3.874299346
3.874299346
3.954308705
3.954308705
4.055859045
4.055859045
4.089709159
4.089709159
4.052781762
4.052781762
4.052781762
4.052781762
4.286655273
4.286655273
3.93892229
3.93892229
4.062013611
4.062013611
4.117404706
4.117404706
4.129713838
4.129713838
4.135868404
4.135868404
4.169718518
4.169718518
4.360510066
4.360510066
4.043549913
4.043549913
3.911226742
3.911226742
4.037395347
4.037395347
4.037395347
4.102018291
4.102018291
4.11125014
4.11125014
4.218955046
4.218955046
4.431287576
4.431287576
4.175873084
4.175873084
3.874299346
3.874299346
4.169718518
4.169718518
4.080477309
4.080477309
4.00046795
4.00046795
4.003545234
4.003545234
4.138945687
4.138945687
4.123559272
4.123559272
4.083554593
4.083554593
4.043549913
4.043549913
4.135868404
4.135868404
4.372819198
4.372819198
4.160486668
4.160486668
4.003545234
4.003545234
4.157409385
4.157409385
4.157409385
4.342046368
4.342046368
3.871222063
3.871222063
4.095863725
4.095863725
4.163563952
4.163563952
4.243573311
4.243573311
4.418978444
4.418978444
4.271268858
4.271268858
4.246650594
4.246650594
4.086631876
4.086631876
3.951231422
3.951231422
4.218955046
4.218955046
4.311273537
4.311273537
4.357432783
4.357432783
4.043549913
4.043549913
4.234341461
4.234341461
4.394360179
4.394360179
4.502065086
4.502065086
4.092786442
4.092786442
3.892763044
3.892763044
4.135868404
4.135868404
4.135868404
4.572842596
4.572842596
4.320505387
4.320505387
4.105095574
4.105095574
3.834294666
3.834294666
3.932767724
3.932767724
4.080477309
4.080477309
4.034318064
4.034318064
4.025086215
4.025086215
4.123559272
4.123559272
4.366664632
4.366664632
4.154332102
4.154332102
4.369741915
4.369741915
4.535915199
4.535915199
4.458983123
4.458983123
4.209723197
4.209723197
4.431287576
4.431287576
4.62823369
4.62823369
4.268191575
4.268191575
4.262037009
4.262037009
4.262037009
4.25280516
4.25280516
4.228186895
4.228186895
4.249727877
4.249727877
4.052781762
4.052781762
4.062013611
4.062013611
4.086631876
4.086631876
4.080477309
4.080477309
4.203568631
4.203568631
4.360510066
4.360510066
4.652851955
4.652851955
4.166641235
4.166641235
4.166641235
4.166641235
4.166641235
4.166641235
4.317428103
4.317428103
4.619001841
4.619001841
4.446673991
4.446673991
4.274346141
4.274346141
4.403592029
4.403592029
4.477446821
4.477446821
4.477446821
4.243573311
4.243573311
3.982004252
3.982004252
4.197414065
4.197414065
4.483601388
4.483601388
4.138945687
4.138945687
3.917381308
3.917381308
4.102018291
4.102018291
4.32358267
4.32358267
4.397437462
4.397437462
4.357432783
4.357432783
4.175873084
4.175873084
4.295887122
4.295887122
4.474369538
4.474369538
4.674392936
4.674392936
4.098941008
4.098941008
4.151254819
4.151254819
4.317428103
4.317428103
4.175873084
4.175873084
4.11125014
4.11125014
4.209723197
4.209723197
4.209723197
4.311273537
4.311273537
4.498987803
4.498987803
4.191259499
4.191259499
4.043549913
4.043549913
4.363587349
4.363587349
4.289732556
4.289732556
4.375896481
4.375896481
4.132791121
4.132791121
4.108172857
4.108172857
4.255882443
4.255882443
4.372819198
4.372819198
4.382051047
4.382051047
4.400514746
4.400514746
4.63746554
4.63746554
4.228186895
4.228186895
4.025086215
4.025086215
4.258959726
4.258959726
4.363587349
4.363587349
4.471292255
4.471292255
4.471292255
4.443596708
4.443596708
4.357432783
4.357432783
3.972772403
3.972772403
4.015854366
4.015854366
3.994313384
3.994313384
4.083554593
4.083554593
4.391282896
4.391282896
4.418978444
4.418978444
4.243573311
4.243573311
4.262037009
4.262037009
4.403592029
4.403592029
4.563610747
4.563610747
4.348200934
4.348200934
4.218955046
4.218955046
4.120481989
4.120481989
4.372819198
4.372819198
4.505142369
4.505142369
4.295887122
4.295887122
4.160486668
4.160486668
4.160486668
4.268191575
4.268191575
4.415901161
4.415901161
4.225109612
4.225109612
3.892763044
3.892763044
3.96969512
3.96969512
4.145100253
4.145100253
4.178950367
4.178950367
4.38512833
4.38512833
4.468214972
4.468214972
4.369741915
4.369741915
4.511296935
4.511296935
4.655929238
4.655929238
4.440519425
4.440519425
4.32358267
4.32358267
4.240496028
4.240496028
4.468214972
4.468214972
4.538992482
4.538992482
3.951231422
3.951231422
3.892763044
3.892763044
3.892763044
3.923535875
3.923535875
4.369741915
4.369741915
4.378973764
4.378973764
4.302041688
4.302041688
4.280500707
4.280500707
4.135868404
4.135868404
4.329737236
4.329737236
4.360510066
4.360510066
4.175873084
4.175873084
4.302041688
4.302041688
4.403592029
4.403592029
4.351278217
4.351278217
4.431287576
4.431287576
4.508219652
4.508219652
4.465137689
4.465137689
3.960463271
3.960463271
4.052781762
4.052781762
4.074322743
4.074322743
4.388205613
4.388205613
4.289732556
4.289732556
4.289732556
4.286655273
4.286655273
4.378973764
4.378973764
4.160486668
4.160486668
4.271268858
4.271268858
4.240496028
4.240496028
4.240496028
4.240496028
4.228186895
4.228186895
4.308196254
4.308196254
4.298964405
4.298964405
4.28357799
4.28357799
4.234341461
4.234341461
4.262037009
4.262037009
4.45590584
4.45590584
4.523606067
4.523606067
4.188182216
4.188182216
4.154332102
4.154332102
4.305118971
4.305118971
4.126636555
4.126636555
3.994313384
3.994313384
3.994313384
4.123559272
4.123559272
4.274346141
4.274346141
4.366664632
4.366664632
4.268191575
4.268191575
4.225109612
4.225109612
4.348200934
4.348200934
4.243573311
4.243573311
4.209723197
4.209723197
4.237418744
4.237418744
4.237418744
4.237418744
4.240496028
4.240496028
4.268191575
4.268191575
4.351278217
4.351278217
4.308196254
4.308196254
4.163563952
4.163563952
4.338969085
4.338969085
4.474369538
4.474369538
4.145100253
4.145100253
4.065090894
4.065090894
4.065090894
4.194336782
4.194336782
4.215877763
4.215877763
4.218955046
4.218955046
4.258959726
4.258959726
4.243573311
4.243573311
4.25280516
4.25280516
4.243573311
4.243573311
4.246650594
4.246650594
4.243573311
4.243573311
4.237418744
4.237418744
4.246650594
4.246650594
4.234341461
4.234341461
4.228186895
4.228186895
4.228186895
4.228186895
4.240496028
4.240496028
4.249727877
4.249727877
4.25280516
4.25280516
4.246650594
4.246650594
4.31435082
4.31435082
4.332814519
4.332814519
4.332814519
4.095863725
4.095863725
4.086631876
4.086631876
4.231264178
4.231264178
4.268191575
4.268191575
4.280500707
4.280500707
4.268191575
4.268191575
4.231264178
4.231264178
4.25280516
4.25280516
4.249727877
4.249727877
4.234341461
4.234341461
4.228186895
4.228186895
4.258959726
4.258959726
4.231264178
4.231264178
4.222032329
4.222032329
4.243573311
4.243573311
4.194336782
4.194336782
4.194336782
4.194336782
4.197414065
4.197414065
4.209723197
4.209723197
4.209723197
4.222032329
4.222032329
4.21280048
4.21280048
4.218955046
4.218955046
4.222032329
4.222032329
4.231264178
4.231264178
4.234341461
4.234341461
4.240496028
4.240496028
4.243573311
4.243573311
4.222032329
4.222032329
4.218955046
4.218955046
4.222032329
4.222032329
4.222032329
4.222032329
4.218955046
4.218955046
4.228186895
4.228186895
4.222032329
4.222032329
4.231264178
4.231264178
4.225109612
4.225109612
4.215877763
4.215877763
4.228186895
4.228186895
4.228186895
4.237418744
4.237418744
4.237418744
4.237418744
4.228186895
4.228186895
4.222032329
4.222032329
4.231264178
4.231264178
4.185104933
4.185104933
4.194336782
4.194336782
4.21280048
4.21280048
4.209723197
4.209723197
4.218955046
4.218955046
4.237418744
4.237418744
4.240496028
4.240496028
4.222032329
4.222032329
4.215877763
4.215877763
4.218955046
4.218955046
4.225109612
4.225109612
4.222032329
4.222032329
4.209723197
4.209723197
4.215877763
4.215877763
4.215877763
4.215877763
4.215877763
4.218955046
4.218955046
4.21280048
4.21280048
4.206645914
4.206645914
4.206645914
4.206645914
4.209723197
4.209723197
4.215877763
4.215877763
4.234341461
4.234341461
4.185104933
4.185104933
4.203568631
4.203568631
4.218955046
4.218955046
4.203568631
4.203568631
4.209723197
4.209723197
4.209723197
4.209723197
4.209723197
4.209723197
4.209723197
4.209723197
4.21280048
4.21280048
4.21280048
4.21280048
4.222032329
4.222032329
4.234341461
4.234341461
4.234341461
4.206645914
4.206645914
4.203568631
4.203568631
4.209723197
4.209723197
4.21280048
4.21280048
4.206645914
4.206645914
4.188182216
4.188182216
4.188182216
4.188182216
4.203568631
4.203568631
4.203568631
4.203568631
4.197414065
4.197414065
4.203568631
4.203568631
4.215877763
4.215877763
4.206645914
4.206645914
4.197414065
4.197414065
4.197414065
4.197414065
4.206645914
4.206645914
4.21280048
4.21280048
4.206645914
4.206645914
4.209723197
4.209723197
4.209723197
4.203568631
4.203568631
4.209723197
4.209723197
4.21280048
4.21280048
4.203568631
4.203568631
4.200491348
4.200491348
4.206645914
4.206645914
4.215877763
4.215877763
4.215877763
4.215877763
4.215877763
4.215877763
4.197414065
4.197414065
4.188182216
4.188182216
4.194336782
4.194336782
4.197414065
4.197414065
4.209723197
4.209723197
4.185104933
4.185104933
4.188182216
4.188182216
4.197414065
4.197414065
4.203568631
4.203568631
4.209723197
4.209723197
4.200491348
4.200491348
4.200491348
4.200491348
4.200491348
4.203568631
4.203568631
4.206645914
4.206645914
4.206645914
4.206645914
4.200491348
4.200491348
4.197414065
4.197414065
4.200491348
4.200491348
4.206645914
4.206645914
4.206645914
4.206645914
4.194336782
4.194336782
4.188182216
4.188182216
4.194336782
4.194336782
4.206645914
4.206645914
4.203568631
4.203568631
4.200491348
4.200491348
4.200491348
4.200491348
4.209723197
4.209723197
4.21280048
4.21280048
4.197414065
4.197414065
4.197414065
4.197414065
4.197414065
4.197414065
4.197414065
4.215877763
4.215877763
4.21280048
4.21280048
4.191259499
4.191259499
4.197414065
4.197414065
4.185104933
4.185104933
4.188182216
4.188182216
4.194336782
4.194336782
4.194336782
4.194336782
4.191259499
4.191259499
4.191259499
4.191259499
4.197414065
4.197414065
4.197414065
4.197414065
4.197414065
4.197414065
4.191259499
4.191259499
4.194336782
4.194336782
4.203568631
4.203568631
4.203568631
4.203568631
4.203568631
4.200491348
4.200491348
4.197414065
4.197414065
4.194336782
4.194336782
4.200491348
4.200491348
4.206645914
4.206645914
4.206645914
4.206645914
4.206645914
4.206645914
4.200491348
4.200491348
4.200491348
4.200491348
4.197414065
4.197414065
4.197414065
4.197414065
4.191259499
4.191259499
4.185104933
4.185104933
4.188182216
4.188182216
4.194336782
4.194336782
4.197414065
4.197414065
4.191259499
4.191259499
4.191259499
4.191259499
4.191259499
4.191259499
4.191259499
4.197414065
4.197414065
4.197414065
4.197414065
4.188182216
4.188182216
4.188182216
4.188182216
4.194336782
4.194336782
4.197414065
4.197414065
4.197414065
4.197414065
4.194336782
4.194336782
4.194336782
4.194336782
4.197414065
4.197414065
4.200491348
4.200491348
4.197414065
4.197414065
4.200491348
4.200491348
4.203568631
4.203568631
4.194336782
4.194336782
4.203568631
4.203568631
4.203568631
4.203568631
4.188182216
4.188182216
4.18202765
4.18202765
4.188182216
4.188182216
4.188182216
4.194336782
4.194336782
4.188182216
4.188182216
4.188182216
4.188182216
4.188182216
4.188182216
4.197414065
4.197414065
4.188182216
4.188182216
4.185104933
4.185104933
4.194336782
4.194336782
4.191259499
4.191259499
4.194336782
4.194336782
4.197414065
4.197414065
4.194336782
4.194336782
4.191259499
4.191259499
4.191259499
4.191259499
4.194336782
4.194336782
4.197414065
4.197414065
4.194336782
4.194336782
4.188182216
4.188182216
4.188182216
4.188182216
4.188182216
4.188182216
4.188182216
4.191259499
4.191259499
4.194336782
4.194336782
4.191259499
4.191259499
4.194336782
4.194336782
4.191259499
4.191259499
4.188182216
4.188182216
4.188182216
4.188182216
4.185104933
4.185104933
4.185104933
4.185104933
4.191259499
4.191259499
4.21280048
4.21280048
4.215877763
4.215877763
4.175873084
4.175873084
4.175873084
4.175873084
4.18202765
4.18202765
4.191259499
4.191259499
4.203568631
4.203568631
4.194336782
4.194336782
4.194336782
4.18202765
4.18202765
4.191259499
4.191259499
4.197414065
4.197414065
4.188182216
4.188182216
4.18202765
4.18202765
4.185104933
4.185104933
4.188182216
4.188182216
4.191259499
4.191259499
4.191259499
4.191259499
4.18202765
4.18202765
4.185104933
4.185104933
4.188182216
4.188182216
4.194336782
4.194336782
4.191259499
4.191259499
4.185104933
4.185104933
4.18202765
4.18202765
4.185104933
4.185104933
4.188182216
4.188182216
4.185104933
4.185104933
4.178950367
4.178950367
4.178950367
4.18202765
4.18202765
4.185104933
4.185104933
4.191259499
4.191259499
4.185104933
4.185104933
4.172795801
4.172795801
4.175873084
4.175873084
4.18202765
4.18202765
4.191259499
4.191259499
4.185104933
4.185104933
4.175873084
4.175873084
4.175873084
4.175873084
4.185104933
4.185104933
4.185104933
4.185104933
4.18202765
4.18202765
4.178950367
4.178950367
4.178950367
4.178950367
4.185104933
4.185104933
4.191259499
4.191259499
4.18202765
4.18202765
4.18202765
4.175873084
4.175873084
4.175873084
4.175873084
4.185104933
4.185104933
4.191259499
4.191259499
4.185104933
4.185104933
4.175873084
4.175873084
4.172795801
4.172795801
4.178950367
4.178950367
4.185104933
4.185104933
4.178950367
4.178950367
4.172795801
4.172795801
4.172795801
4.172795801
4.18202765
4.18202765
4.185104933
4.185104933
4.18202765
4.18202765
4.169718518
4.169718518
4.169718518
4.169718518
4.178950367
4.178950367
4.18202765
4.18202765
4.18202765
4.178950367
4.178950367
4.175873084
4.175873084
4.175873084
4.175873084
4.194336782
4.194336782
4.188182216
4.188182216
4.172795801
4.172795801
4.166641235
4.166641235
4.178950367
4.178950367
4.178950367
4.178950367
4.178950367
4.178950367
4.175873084
4.175873084
4.169718518
4.169718518
4.172795801
4.172795801
4.178950367
4.178950367
4.18202765
4.18202765
4.178950367
4.178950367
4.178950367
4.178950367
4.175873084
4.175873084
4.175873084
4.175873084
4.178950367
4.178950367
4.178950367
4.178950367
4.178950367
4.169718518
4.169718518
4.172795801
4.172795801
4.18202765
4.18202765
4.185104933
4.185104933
4.18202765
4.18202765
4.175873084
4.175873084
4.185104933
4.185104933
4.200491348
4.200491348
4.18202765
4.18202765
4.166641235
4.166641235
4.163563952
4.163563952
4.166641235
4.166641235
4.175873084
4.175873084
4.175873084
4.175873084
4.175873084
4.175873084
4.166641235
4.166641235
4.169718518
4.169718518
4.178950367
4.178950367
4.178950367
4.18202765
4.18202765
4.178950367
4.178950367
4.169718518
4.169718518
4.172795801
4.172795801
4.178950367
4.178950367
4.18202765
4.18202765
4.178950367
4.178950367
4.172795801
4.172795801
4.175873084
4.175873084
4.18202765
4.18202765
4.18202765
4.18202765
4.178950367
4.178950367
4.175873084
4.175873084
4.172795801
4.172795801
4.175873084
4.175873084
4.185104933
4.185104933
4.18202765
4.18202765
4.172795801
4.172795801
4.169718518
4.169718518
4.169718518
4.175873084
4.175873084
4.18202765
4.18202765
4.178950367
4.178950367
4.172795801
4.172795801
4.172795801
4.172795801
4.178950367
4.178950367
4.18202765
4.18202765
4.178950367
4.178950367
4.175873084
4.175873084
4.175873084
4.175873084
4.185104933
4.185104933
4.188182216
4.188182216
4.18202765
4.18202765
4.178950367
4.178950367
4.178950367
4.178950367
4.18202765
4.18202765
4.185104933
4.185104933
4.18202765
4.18202765
4.175873084
4.175873084
4.175873084
4.175873084
4.175873084
4.18202765
4.18202765
4.185104933
4.185104933
4.178950367
4.178950367
4.175873084
4.175873084
4.175873084
4.175873084
4.185104933
4.185104933
4.188182216
4.188182216
4.18202765
4.18202765
4.178950367
4.178950367
4.18202765
4.18202765
4.185104933
4.185104933
4.185104933
4.185104933
4.188182216
4.188182216
4.194336782
4.194336782
4.175873084
4.175873084
4.172795801
4.172795801
4.18202765
4.18202765
4.178950367
4.178950367
4.175873084
4.175873084
4.175873084
4.178950367
4.178950367
4.185104933
4.185104933
4.188182216
4.188182216
4.18202765
4.18202765
4.172795801
4.172795801
4.175873084
4.175873084
4.185104933
4.185104933
4.185104933
4.185104933
4.18202765
4.18202765
4.178950367
4.178950367
4.18202765
4.18202765
4.18202765
4.18202765
4.188182216
4.188182216
4.18202765
4.18202765
4.175873084
4.175873084
4.18202765
4.18202765
4.18202765
4.18202765
4.18202765
4.18202765
4.18202765
4.18202765
4.18202765
4.18202765
4.18202765
4.18202765
4.18202765
4.191259499
4.191259499
4.203568631
4.203568631
4.194336782
4.194336782
4.172795801
4.172795801
4.175873084
4.175873084
4.18202765
4.18202765
4.18202765
4.18202765
4.18202765
4.18202765
4.178950367
4.178950367
4.18202765
4.18202765
4.185104933
4.185104933
4.188182216
4.188182216
4.185104933
4.185104933
4.18202765
4.18202765
4.18202765
4.18202765
4.188182216
4.188182216
4.188182216
4.188182216
4.188182216
4.18202765
4.18202765
4.18202765
4.18202765
4.18202765
4.18202765
4.185104933
4.185104933
4.185104933
4.185104933
4.185104933
4.185104933
4.18202765
4.18202765
4.18202765
4.18202765
4.188182216
4.188182216
4.194336782
4.194336782
4.188182216
4.188182216
4.178950367
4.178950367
4.18202765
4.18202765
4.188182216
4.188182216
4.18202765
4.18202765
4.18202765
4.18202765
4.18202765
4.18202765
4.178950367
4.178950367
4.18202765
4.18202765
4.188182216
4.188182216
4.188182216
4.185104933
4.185104933
4.18202765
4.18202765
4.185104933
4.185104933
4.185104933
4.185104933
4.191259499
4.191259499
4.191259499
4.191259499
4.175873084
4.175873084
4.178950367
4.178950367
4.185104933
4.185104933
4.185104933
4.185104933
4.185104933
4.185104933
4.185104933
4.185104933
4.185104933
4.185104933
4.18202765
4.18202765
4.185104933
4.185104933
4.18202765
4.18202765
4.18202765
4.18202765
4.18202765
4.18202765
4.185104933
4.185104933
4.185104933
4.185104933
4.185104933
4.185104933
4.185104933
4.185104933
4.185104933
4.18202765
4.18202765
4.188182216
4.188182216
4.185104933
4.185104933
4.185104933
4.185104933
4.18202765
4.18202765
4.18202765
4.18202765
4.185104933
4.185104933
4.185104933
4.185104933
4.18202765
4.18202765
4.178950367
4.178950367
4.18202765
4.18202765
4.18202765
4.18202765
4.185104933
4.185104933
4.185104933
4.185104933
4.18202765
4.18202765
4.18202765
4.18202765
4.18202765
4.18202765
4.18202765
4.185104933
4.185104933
4.185104933
4.185104933
4.18202765
4.18202765
4.18202765
4.18202765
4.18202765
4.18202765
4.185104933
4.185104933
4.185104933
4.185104933
4.18202765
4.18202765
4.18202765
4.18202765
4.18202765
4.18202765
4.188182216
4.188182216
4.18202765
4.18202765
4.18202765
4.18202765
4.18202765
4.18202765
4.178950367
4.178950367
4.178950367
4.178950367
4.178950367
4.178950367
4.178950367
4.178950367
4.178950367
4.178950367
4.178950367
4.18202765
4.18202765
4.18202765
4.18202765
4.18202765
4.18202765
4.178950367
4.178950367
4.18202765
4.18202765
4.18202765
4.18202765
4.18202765
4.18202765
4.18202765
4.18202765
4.178950367
4.178950367
4.178950367
4.178950367
4.185104933
4.185104933
4.18202765
4.18202765
4.178950367
4.178950367
4.175873084
4.175873084
4.175873084
4.175873084
4.178950367
4.178950367
4.18202765
4.18202765
4.178950367
4.178950367
4.175873084
4.175873084
4.175873084
4.169718518
4.169718518
4.175873084
4.175873084
4.178950367
4.178950367
4.18202765
4.18202765
4.18202765
4.18202765
4.169718518
4.169718518
4.172795801
4.172795801
4.169718518
4.169718518
4.163563952
4.163563952
4.166641235
4.166641235
4.169718518
4.169718518
4.169718518
4.169718518
4.169718518
4.169718518
4.169718518
4.169718518
4.166641235
4.166641235
4.163563952
4.163563952
4.169718518
4.169718518
4.166641235
4.166641235
4.166641235
4.166641235
4.166641235
4.160486668
4.160486668
4.151254819
4.151254819
4.151254819
4.151254819
4.151254819
4.151254819
4.151254819
4.151254819
4.148177536
4.148177536
4.148177536
4.148177536
4.148177536
4.148177536
4.151254819
4.151254819
4.145100253
4.145100253
4.145100253
4.145100253
4.14202297
4.14202297
4.148177536
4.148177536
4.14202297
4.14202297
4.14202297
4.14202297
4.14202297
4.14202297
4.145100253
4.145100253
4.145100253
4.145100253
4.14202297
4.14202297
4.14202297
4.14202297
4.14202297
4.138945687
4.138945687
4.138945687
4.138945687
4.14202297
4.14202297
4.145100253
4.145100253
4.14202297
4.14202297
4.14202297
4.14202297
4.138945687
4.138945687
4.138945687
4.138945687
4.14202297
4.14202297
4.14202297
4.14202297
4.14202297
4.14202297
4.14202297
4.14202297
4.145100253
4.145100253
4.145100253
4.145100253
4.145100253
4.145100253
4.145100253
4.145100253
4.138945687
4.138945687
4.14202297
4.14202297
4.145100253
4.145100253
4.145100253
4.145100253
4.145100253
4.145100253
4.145100253
4.14202297
4.14202297
4.14202297
4.14202297
4.138945687
4.138945687
4.138945687
4.138945687
4.138945687
4.138945687
4.138945687
4.138945687
4.14202297
4.14202297
4.14202297
4.14202297
4.138945687
4.138945687
4.138945687
4.138945687
4.138945687
4.138945687
4.138945687
4.138945687
4.138945687
4.138945687
4.138945687
4.138945687
4.138945687
4.138945687
4.138945687
4.138945687
4.138945687
4.138945687
4.138945687
4.138945687
4.138945687
4.138945687
4.138945687
4.135868404
4.135868404
4.138945687
4.138945687
4.14202297
4.14202297
4.14202297
4.14202297
4.138945687
4.138945687
4.135868404
4.135868404
4.129713838
4.129713838
4.132791121
4.132791121
4.135868404
4.135868404
4.135868404
4.135868404
4.135868404
4.135868404
4.138945687
4.138945687
4.138945687
4.138945687
4.135868404
4.135868404
4.132791121
4.132791121
4.132791121
4.132791121
4.129713838
4.129713838
4.129713838
4.129713838
4.129713838
4.132791121
4.132791121
4.132791121
4.132791121
4.132791121
4.132791121
4.129713838
4.129713838
4.129713838
4.129713838
4.129713838
4.129713838
4.129713838
4.129713838
4.126636555
4.126636555
4.126636555
4.126636555
4.129713838
4.129713838
4.126636555
4.126636555
4.129713838
4.129713838
4.129713838
4.129713838
4.126636555
4.126636555
4.126636555
4.126636555
4.129713838
4.129713838
4.129713838
4.129713838
4.129713838
4.129713838
4.126636555
4.126636555
4.126636555
4.126636555
4.126636555
4.126636555
4.126636555
4.120481989
4.120481989
4.120481989
4.120481989
4.123559272
4.123559272
4.126636555
4.126636555
4.126636555
4.126636555
4.123559272
4.123559272
4.120481989
4.120481989
4.123559272
4.123559272
4.126636555
4.126636555
4.126636555
4.126636555
4.120481989
4.120481989
4.120481989
4.120481989
4.126636555
4.126636555
4.126636555
4.126636555
4.123559272
4.123559272
4.117404706
4.117404706
4.120481989
4.120481989
4.120481989
4.123559272
4.123559272
4.126636555
4.126636555
4.126636555
4.126636555
4.120481989
4.120481989
4.120481989
4.120481989
4.126636555
4.126636555
4.129713838
4.129713838
4.126636555
4.126636555
4.120481989
4.120481989
4.120481989
4.120481989
4.129713838
4.129713838
4.132791121
4.132791121
4.129713838
4.129713838
4.123559272
4.123559272
4.120481989
4.120481989
4.120481989
4.120481989
4.129713838
4.129713838
4.126636555
4.126636555
4.120481989
4.120481989
4.120481989
4.120481989
4.120481989
4.129713838
4.129713838
4.129713838
4.129713838
4.123559272
4.123559272
4.120481989
4.120481989
4.120481989
4.120481989
4.126636555
4.126636555
4.129713838
4.129713838
4.126636555
4.126636555
4.123559272
4.123559272
4.123559272
4.123559272
4.126636555
4.126636555
4.132791121
4.132791121
4.123559272
4.123559272
4.120481989
4.120481989
4.123559272
4.123559272
4.129713838
4.129713838
4.132791121
4.132791121
4.129713838
4.129713838
4.126636555
4.126636555
4.126636555
4.120481989
4.120481989
4.129713838
4.129713838
4.132791121
4.132791121
4.129713838
4.129713838
4.129713838
4.129713838
4.126636555
4.126636555
4.132791121
4.132791121
4.14202297
4.14202297
4.135868404
4.135868404
4.120481989
4.120481989
4.117404706
4.117404706
4.126636555
4.126636555
4.132791121
4.132791121
4.129713838
4.129713838
4.123559272
4.123559272
4.126636555
4.126636555
4.132791121
4.132791121
4.138945687
4.138945687
4.129713838
4.129713838
4.129713838
4.120481989
4.120481989
4.123559272
4.123559272
4.129713838
4.129713838
4.135868404
4.135868404
4.132791121
4.132791121
4.129713838
4.129713838
4.126636555
4.126636555
4.135868404
4.135868404
4.138945687
4.138945687
4.135868404
4.135868404
4.126636555
4.126636555
4.126636555
4.126636555
4.132791121
4.132791121
4.135868404
4.135868404
4.132791121
4.132791121
4.129713838
4.129713838
4.129713838
4.129713838
4.132791121
4.132791121
4.138945687
4.138945687
4.135868404
4.135868404
4.135868404
4.132791121
4.132791121
4.138945687
4.138945687
4.138945687
4.138945687
4.135868404
4.135868404
4.132791121
4.132791121
4.129713838
4.129713838
4.126636555
4.126636555
4.132791121
4.132791121
4.135868404
4.135868404
4.132791121
4.132791121
4.129713838
4.129713838
4.132791121
4.132791121
4.135868404
4.135868404
4.138945687
4.138945687
4.135868404
4.135868404
4.132791121
4.132791121
4.132791121
4.132791121
4.135868404
4.135868404
4.14202297
4.14202297
4.14202297
4.14202297
4.14202297
4.132791121
4.132791121
4.132791121
4.132791121
4.14202297
4.14202297
4.145100253
4.145100253
4.14202297
4.14202297
4.132791121
4.132791121
4.135868404
4.135868404
4.138945687
4.138945687
4.14202297
4.14202297
4.138945687
4.138945687
4.135868404
4.135868404
4.135868404
4.135868404
4.138945687
4.138945687
4.14202297
4.14202297
4.135868404
4.135868404
4.132791121
4.132791121
4.132791121
4.132791121
4.138945687
4.138945687
4.138945687
4.145100253
4.145100253
4.14202297
4.14202297
4.135868404
4.135868404
4.135868404
4.135868404
4.14202297
4.14202297
4.145100253
4.145100253
4.14202297
4.14202297
4.135868404
4.135868404
4.135868404
4.135868404
4.14202297
4.14202297
4.145100253
4.145100253
4.145100253
4.145100253
4.14202297
4.14202297
4.138945687
4.138945687
4.14202297
4.14202297
4.14202297
4.14202297
4.14202297
4.14202297
4.14202297
4.14202297
4.138945687
4.138945687
4.138945687
4.14202297
4.14202297
4.148177536
4.148177536
4.145100253
4.145100253
4.138945687
4.138945687
4.138945687
4.138945687
4.145100253
4.145100253
4.148177536
4.148177536
4.145100253
4.145100253
4.14202297
4.14202297
4.14202297
4.14202297
4.148177536
4.148177536
4.148177536
4.148177536
4.145100253
4.145100253
4.138945687
4.138945687
4.138945687
4.138945687
4.145100253
4.145100253
4.148177536
4.148177536
4.145100253
4.145100253
4.14202297
4.14202297
4.138945687
4.138945687
4.138945687
4.14202297
4.14202297
4.145100253
4.145100253
4.14202297
4.14202297
4.14202297
4.14202297
4.14202297
4.14202297
4.151254819
4.151254819
4.154332102
4.154332102
4.14202297
4.14202297
4.138945687
4.138945687
4.14202297
4.14202297
4.148177536
4.148177536
4.151254819
4.151254819
4.148177536
4.148177536
4.138945687
4.138945687
4.14202297
4.14202297
4.148177536
4.148177536
4.148177536
4.148177536
4.148177536
4.148177536
4.14202297
4.14202297
4.14202297
4.14202297
4.14202297
4.148177536
4.148177536
4.148177536
4.148177536
4.148177536
4.148177536
4.145100253
4.145100253
4.14202297
4.14202297
4.151254819
4.151254819
4.154332102
4.154332102
4.148177536
4.148177536
4.145100253
4.145100253
4.148177536
4.148177536
4.151254819
4.151254819
4.151254819
4.151254819
4.148177536
4.148177536
4.145100253
4.145100253
4.145100253
4.145100253
4.154332102
4.154332102
4.154332102
4.154332102
4.148177536
4.148177536
4.148177536
4.145100253
4.145100253
4.151254819
4.151254819
4.151254819
4.151254819
4.157409385
4.157409385
4.154332102
4.154332102
4.145100253
4.145100253
4.148177536
4.148177536
4.154332102
4.154332102
4.157409385
4.157409385
4.154332102
4.154332102
4.148177536
4.148177536
4.151254819
4.151254819
4.157409385
4.157409385
4.160486668
4.160486668
4.154332102
4.154332102
4.148177536
4.148177536
4.151254819
4.151254819
4.154332102
4.154332102
4.157409385
4.157409385
4.151254819
4.151254819
4.151254819
4.148177536
4.148177536
4.154332102
4.154332102
4.157409385
4.157409385
4.157409385
4.157409385
4.157409385
4.157409385
4.151254819
4.151254819
4.148177536
4.148177536
4.157409385
4.157409385
4.160486668
4.160486668
4.154332102
4.154332102
4.151254819
4.151254819
4.154332102
4.154332102
4.157409385
4.157409385
4.160486668
4.160486668
4.154332102
4.154332102
4.151254819
4.151254819
4.157409385
4.157409385
4.160486668
4.160486668
4.157409385
4.157409385
4.157409385
4.157409385
4.157409385
4.154332102
4.154332102
4.154332102
4.154332102
4.157409385
4.157409385
4.160486668
4.160486668
4.157409385
4.157409385
4.154332102
4.154332102
4.157409385
4.157409385
4.163563952
4.163563952
4.163563952
4.163563952
4.163563952
4.163563952
4.160486668
4.160486668
4.160486668
4.160486668
4.163563952
4.163563952
4.166641235
4.166641235
4.163563952
4.163563952
4.157409385
4.157409385
4.154332102
4.154332102
4.166641235
4.166641235
4.166641235
4.160486668
4.160486668
4.154332102
4.154332102
4.154332102
4.154332102
4.154332102
4.154332102
4.163563952
4.163563952
4.163563952
4.163563952
4.157409385
4.157409385
4.154332102
4.154332102
4.160486668
4.160486668
4.160486668
4.160486668
4.160486668
4.160486668
4.157409385
4.157409385
4.157409385
4.157409385
4.160486668
4.160486668
4.163563952
4.163563952
4.163563952
4.163563952
4.163563952
4.163563952
4.157409385
4.157409385
4.157409385
4.157409385
4.163563952
4.163563952
4.163563952
4.163563952
4.163563952
4.163563952
4.163563952
4.160486668
4.160486668
4.163563952
4.163563952
4.163563952
4.163563952
4.163563952
4.163563952
4.160486668
4.160486668
4.160486668
4.160486668
4.163563952
4.163563952
4.166641235
4.166641235
4.166641235
4.166641235
4.166641235
4.166641235
4.166641235
4.166641235
4.169718518
4.169718518
4.169718518
4.169718518
4.163563952
4.163563952
4.163563952
4.163563952
4.160486668
4.160486668
4.166641235
4.166641235
4.166641235
4.172795801
4.172795801
4.166641235
4.166641235
4.163563952
4.163563952
4.163563952
4.163563952
4.166641235
4.166641235
4.166641235
4.166641235
4.169718518
4.169718518
4.166641235
4.166641235
4.163563952
4.163563952
4.163563952
4.163563952
4.169718518
4.169718518
4.172795801
4.172795801
4.169718518
4.169718518
4.166641235
4.166641235
4.163563952
4.163563952
4.166641235
4.166641235
4.169718518
4.169718518
4.166641235
4.166641235
4.163563952
4.163563952
4.163563952
4.166641235
4.166641235
4.172795801
4.172795801
4.172795801
4.172795801
4.169718518
4.169718518
4.163563952
4.163563952
4.169718518
4.169718518
4.172795801
4.172795801
4.169718518
4.169718518
4.166641235
4.166641235
4.166641235
4.166641235
4.172795801
4.172795801
4.175873084
4.175873084
4.172795801
4.172795801
4.166641235
4.166641235
4.166641235
4.166641235
4.172795801
4.172795801
4.172795801
4.172795801
4.169718518
4.169718518
4.169718518
4.169718518
4.166641235
4.166641235
4.166641235
4.169718518
4.169718518
4.175873084
4.175873084
4.175873084
4.175873084
4.172795801
4.172795801
4.169718518
4.169718518
4.169718518
4.169718518
4.169718518
4.169718518
4.172795801
4.172795801
4.175873084
4.175873084
4.169718518
4.169718518
4.172795801
4.172795801
4.178950367
4.178950367
4.175873084
4.175873084
4.172795801
4.172795801
4.169718518
4.169718518
4.172795801
4.172795801
4.175873084
4.175873084
4.178950367
4.178950367
4.172795801
4.172795801
4.172795801
4.169718518
4.169718518
4.169718518
4.169718518
4.175873084
4.175873084
4.175873084
4.175873084
4.172795801
4.172795801
4.172795801
4.172795801
4.169718518
4.169718518
4.175873084
4.175873084
4.178950367
4.178950367
4.172795801
4.172795801
4.169718518
4.169718518
4.175873084
4.175873084
4.175873084
4.175873084
4.178950367
4.178950367
4.175873084
4.175873084
4.172795801
4.172795801
4.175873084
4.175873084
4.178950367
4.178950367
4.18202765
4.18202765
4.18202765
4.178950367
4.178950367
4.172795801
4.172795801
4.175873084
4.175873084
4.178950367
4.178950367
4.178950367
4.178950367
4.178950367
4.178950367
4.175873084
4.175873084
4.172795801
4.172795801
4.175873084
4.175873084
4.178950367
4.178950367
4.178950367
4.178950367
4.178950367
4.178950367
4.178950367
4.178950367
4.18202765
4.18202765
4.178950367
4.178950367
4.178950367
4.178950367
4.175873084
4.175873084
4.178950367
4.178950367
4.185104933
4.185104933
4.18202765
4.18202765
4.18202765
4.178950367
4.178950367
4.178950367
4.178950367
4.18202765
4.18202765
4.185104933
4.185104933
4.18202765
4.18202765
4.175873084
4.175873084
4.175873084
4.175873084
4.178950367
4.178950367
4.18202765
4.18202765
4.185104933
4.185104933
4.18202765
4.18202765
4.175873084
4.175873084
4.178950367
4.178950367
4.18202765
4.18202765
4.18202765
4.18202765
4.178950367
4.178950367
4.175873084
4.175873084
4.18202765
4.18202765
4.188182216
4.188182216
4.188182216
4.188182216
4.188182216
4.18202765
4.18202765
4.18202765
4.18202765
4.178950367
4.178950367
4.178950367
4.178950367
4.18202765
4.18202765
4.18202765
4.18202765
4.18202765
4.18202765
4.18202765
4.18202765
4.185104933
4.185104933
4.185104933
4.185104933
4.178950367
4.178950367
4.178950367
4.178950367
4.185104933
4.185104933
4.188182216
4.188182216
4.188182216
4.188182216
4.18202765
4.18202765
4.178950367
4.178950367
4.185104933
4.185104933
4.185104933
4.185104933
4.185104933
4.185104933
4.185104933
4.18202765
4.18202765
4.18202765
4.18202765
4.188182216
4.188182216
4.194336782
4.194336782
4.191259499
4.191259499
4.185104933
4.185104933
4.18202765
4.18202765
4.185104933
4.185104933
4.188182216
4.188182216
4.191259499
4.191259499
4.185104933
4.185104933
4.18202765
4.18202765
4.185104933
4.185104933
4.191259499
4.191259499
4.191259499
4.191259499
4.185104933
4.185104933
4.18202765
4.18202765
4.18202765
4.185104933
4.185104933
4.191259499
4.191259499
4.191259499
4.191259499
4.188182216
4.188182216
4.185104933
4.185104933
4.185104933
4.185104933
4.188182216
4.188182216
4.188182216
4.188182216
4.188182216
4.188182216
4.185104933
4.185104933
4.188182216
4.188182216
4.194336782
4.194336782
4.188182216
4.188182216
4.185104933
4.185104933
4.185104933
4.185104933
4.188182216
4.188182216
4.191259499
4.191259499
4.191259499
4.191259499
4.185104933
4.185104933
4.185104933
4.185104933
4.185104933
4.188182216
4.188182216
4.191259499
4.191259499
4.188182216
4.188182216
4.185104933
4.185104933
4.185104933
4.185104933
4.191259499
4.191259499
4.194336782
4.194336782
4.191259499
4.191259499
4.188182216
4.188182216
4.185104933
4.185104933
4.188182216
4.188182216
4.194336782
4.194336782
4.191259499
4.191259499
4.188182216
4.188182216
4.188182216
4.188182216
4.194336782
4.194336782
4.197414065
4.197414065
4.194336782
4.194336782
4.188182216
4.188182216
4.188182216
4.185104933
4.185104933
4.188182216
4.188182216
4.194336782
4.194336782
4.191259499
4.191259499
4.188182216
4.188182216
4.191259499
4.191259499
4.191259499
4.191259499
4.194336782
4.194336782
4.194336782
4.194336782
4.185104933
4.185104933
4.188182216
4.188182216
4.191259499
4.191259499
4.194336782
4.194336782
4.194336782
4.194336782
4.188182216
4.188182216
4.191259499
4.191259499
4.191259499
4.191259499
4.194336782
4.194336782
4.194336782
4.194336782
4.194336782
4.191259499
4.191259499
4.191259499
4.191259499
4.191259499
4.191259499
4.194336782
4.194336782
4.197414065
4.197414065
4.194336782
4.194336782
4.194336782
4.194336782
4.188182216
4.188182216
4.191259499
4.191259499
4.191259499
4.191259499
4.188182216
4.188182216
4.188182216
4.188182216
4.191259499
4.191259499
4.197414065
4.197414065
4.197414065
4.197414065
4.191259499
4.191259499
4.188182216
4.188182216
4.194336782
4.194336782
4.197414065
4.197414065
4.194336782
4.194336782
4.194336782
4.191259499
4.191259499
4.191259499
4.191259499
4.191259499
4.191259499
4.194336782
4.194336782
4.197414065
4.197414065
4.194336782
4.194336782
4.191259499
4.191259499
4.194336782
4.194336782
4.194336782
4.194336782
4.191259499
4.191259499
4.188182216
4.188182216
4.188182216
4.188182216
4.197414065
4.197414065
4.200491348
4.200491348
4.197414065
4.197414065
4.188182216
4.188182216
4.191259499
4.191259499
4.194336782
4.194336782
4.200491348
4.200491348
4.200491348
4.197414065
4.197414065
4.191259499
4.191259499
4.191259499
4.191259499
4.194336782
4.194336782
4.197414065
4.197414065
4.200491348
4.200491348
4.191259499
4.191259499
4.188182216
4.188182216
4.191259499
4.191259499
4.194336782
4.194336782
4.197414065
4.197414065
4.194336782
4.194336782
4.191259499
4.191259499
4.197414065
4.197414065
4.200491348
4.200491348
4.194336782
4.194336782
4.191259499
4.191259499
4.191259499
4.191259499
4.191259499
4.191259499
4.191259499
4.194336782
4.194336782
4.194336782
4.194336782
4.191259499
4.191259499
4.191259499
4.191259499
4.194336782
4.194336782
4.200491348
4.200491348
4.197414065
4.197414065
4.188182216
4.188182216
4.191259499
4.191259499
4.194336782
4.194336782
4.200491348
4.200491348
4.200491348
4.200491348
4.191259499
4.191259499
4.191259499
4.191259499
4.197414065
4.197414065
4.194336782
4.194336782
4.194336782
4.194336782
4.194336782
4.194336782
4.191259499
4.191259499
4.191259499
4.191259499
4.191259499
4.194336782
4.194336782
4.197414065
4.197414065
4.191259499
4.191259499
4.191259499
4.191259499
4.194336782
4.194336782
4.200491348
4.200491348
4.197414065
4.197414065
4.194336782
4.194336782
4.194336782
4.194336782
4.194336782
4.194336782
4.197414065
4.197414065
4.203568631
4.203568631
4.200491348
4.200491348
4.191259499
4.191259499
4.194336782
4.194336782
4.197414065
4.197414065
4.197414065
4.197414065
4.194336782
4.194336782
4.194336782
4.194336782
4.194336782
4.197414065
4.197414065
4.200491348
4.200491348
4.197414065
4.197414065
4.191259499
4.191259499
4.194336782
4.194336782
4.200491348
4.200491348
4.200491348
4.200491348
4.200491348
4.200491348
4.194336782
4.194336782
4.197414065
4.197414065
4.200491348
4.200491348
4.197414065
4.197414065
4.197414065
4.197414065
4.194336782
4.194336782
4.194336782
4.194336782
4.197414065
4.197414065
4.203568631
4.203568631
4.200491348
4.200491348
4.197414065
4.197414065
4.197414065
4.197414065
4.197414065
4.200491348
4.200491348
4.203568631
4.203568631
4.203568631
4.203568631
4.194336782
4.194336782
4.197414065
4.197414065
4.197414065
4.197414065
4.200491348
4.200491348
4.203568631
4.203568631
4.197414065
4.197414065
4.194336782
4.194336782
4.197414065
4.197414065
4.197414065
4.197414065
4.197414065
4.197414065
4.200491348
4.200491348
4.197414065
4.197414065
4.203568631
4.203568631
4.206645914
4.206645914
4.203568631
4.203568631
4.197414065
4.197414065
4.197414065
4.197414065
4.197414065
4.200491348
4.200491348
4.200491348
4.200491348
4.200491348
4.200491348
4.197414065
4.197414065
4.203568631
4.203568631
4.203568631
4.203568631
4.200491348
4.200491348
4.197414065
4.197414065
4.194336782
4.194336782
4.197414065
4.197414065
4.200491348
4.200491348
4.203568631
4.203568631
4.200491348
4.200491348
4.197414065
4.197414065
4.197414065
4.197414065
4.200491348
4.200491348
4.203568631
4.203568631
4.200491348
4.200491348
4.200491348
4.197414065
4.197414065
4.197414065
4.197414065
4.197414065
4.197414065
4.200491348
4.200491348
4.200491348
4.200491348
4.200491348
4.200491348
4.197414065
4.197414065
4.200491348
4.200491348
4.203568631
4.203568631
4.203568631
4.203568631
4.197414065
4.197414065
4.197414065
4.197414065
4.200491348
4.200491348
4.203568631
4.203568631
4.200491348
4.200491348
4.200491348
4.200491348
4.197414065
4.197414065
4.197414065
4.197414065
4.203568631
4.203568631
4.203568631
4.200491348
4.200491348
4.197414065
4.197414065
4.203568631
4.203568631
4.203568631
4.203568631
4.200491348
4.200491348
4.200491348
4.200491348
4.197414065
4.197414065
4.200491348
4.200491348
4.203568631
4.203568631
4.203568631
4.203568631
4.203568631
4.203568631
4.200491348
4.200491348
4.200491348
4.200491348
4.200491348
4.200491348
4.203568631
4.203568631
4.203568631
4.203568631
4.197414065
4.197414065
4.197414065
4.197414065
4.206645914
4.206645914
4.206645914
4.206645914
4.206645914
4.200491348
4.200491348
4.200491348
4.200491348
4.200491348
4.200491348
4.203568631
4.203568631
4.206645914
4.206645914
4.200491348
4.200491348
4.197414065
4.197414065
4.197414065
4.197414065
4.200491348
4.200491348
4.203568631
4.203568631
4.203568631
4.203568631
4.200491348
4.200491348
4.200491348
4.200491348
4.203568631
4.203568631
4.206645914
4.206645914
4.203568631
4.203568631
4.203568631
4.203568631
4.203568631
4.203568631
4.203568631
4.203568631
4.203568631
4.206645914
4.206645914
4.206645914
4.206645914
4.203568631
4.203568631
4.200491348
4.200491348
4.203568631
4.203568631
4.206645914
4.206645914
4.206645914
4.206645914
4.206645914
4.206645914
4.200491348
4.200491348
4.203568631
4.203568631
4.203568631
4.203568631
4.203568631
4.203568631
4.206645914
4.206645914
4.197414065
4.197414065
4.200491348
4.200491348
4.203568631
4.203568631
4.200491348
4.200491348
4.197414065
4.197414065
4.200491348
4.200491348
4.200491348
4.206645914
4.206645914
4.206645914
4.206645914
4.206645914
4.206645914
4.203568631
4.203568631
4.197414065
4.197414065
4.203568631
4.203568631
4.203568631
4.203568631
4.203568631
4.203568631
4.200491348
4.200491348
4.203568631
4.203568631
4.203568631
4.203568631
4.206645914
4.206645914
4.200491348
4.200491348
4.197414065
4.197414065
4.200491348
4.200491348
4.209723197
4.209723197
4.209723197
4.209723197
4.206645914
4.206645914
4.200491348
4.200491348
4.203568631
4.203568631
4.203568631
4.203568631
4.203568631
4.206645914
4.206645914
4.197414065
4.197414065
4.194336782
4.194336782
4.197414065
4.197414065
4.206645914
4.206645914
4.203568631
4.203568631
4.206645914
4.206645914
4.197414065
4.197414065
4.197414065
4.197414065
4.206645914
4.206645914
4.206645914
4.206645914
4.203568631
4.203568631
4.200491348
4.200491348
4.203568631
4.203568631
4.203568631
4.203568631
4.206645914
4.206645914
4.203568631
4.203568631
4.203568631
4.203568631
4.203568631
4.200491348
4.200491348
4.206645914
4.206645914
4.209723197
4.209723197
4.203568631
4.203568631
4.200491348
4.200491348
4.200491348
4.200491348
4.203568631
4.203568631
4.203568631
4.203568631
4.206645914
4.206645914
4.206645914
4.206645914
4.200491348
4.200491348
4.203568631
4.203568631
4.206645914
4.206645914
4.200491348
4.200491348
4.200491348
4.200491348
4.200491348
4.200491348
4.203568631
4.203568631
4.209723197
4.209723197
4.203568631
4.203568631
4.203568631
4.203568631
4.203568631
4.203568631
4.203568631
4.206645914
4.206645914
4.209723197
4.209723197
4.203568631
4.203568631
4.203568631
4.203568631
4.203568631
4.203568631
4.206645914
4.206645914
4.206645914
4.206645914
4.206645914
4.206645914
4.203568631
4.203568631
4.200491348
4.200491348
4.203568631
4.203568631
4.206645914
4.206645914
4.203568631
4.203568631
4.200491348
4.200491348
4.203568631
4.203568631
4.21280048
4.21280048
4.206645914
4.206645914
4.197414065
4.197414065
4.197414065
4.197414065
4.197414065
4.203568631
4.203568631
4.203568631
4.203568631
4.203568631
4.203568631
4.203568631
4.203568631
4.203568631
4.203568631
4.203568631
4.203568631
4.206645914
4.206645914
4.206645914
4.206645914
4.200491348
4.200491348
4.206645914
4.206645914
4.203568631
4.203568631
4.203568631
4.203568631
4.203568631
4.203568631
4.203568631
4.203568631
4.200491348
4.200491348
4.203568631
4.203568631
4.209723197
4.209723197
4.209723197
4.209723197
4.209723197
4.203568631
4.203568631
4.200491348
4.200491348
4.200491348
4.200491348
4.203568631
4.203568631
4.203568631
4.203568631
4.206645914
4.206645914
4.197414065
4.197414065
4.203568631
4.203568631
4.206645914
4.206645914
4.203568631
4.203568631
4.203568631
4.203568631
4.206645914
4.206645914
4.209723197
4.209723197
4.203568631
4.203568631
4.203568631
4.203568631
4.200491348
4.200491348
4.200491348
4.200491348
4.200491348
4.200491348
4.203568631
4.203568631
4.203568631
4.206645914
4.206645914
4.203568631
4.203568631
4.197414065
4.197414065
4.203568631
4.203568631
4.209723197
4.209723197
4.206645914
4.206645914
4.203568631
4.203568631
4.200491348
4.200491348
4.200491348
4.200491348
4.206645914
4.206645914
4.206645914
4.206645914
4.203568631
4.203568631
4.203568631
4.203568631
4.200491348
4.200491348
4.203568631
4.203568631
4.206645914
4.206645914
4.206645914
4.206645914
4.206645914
4.206645914
4.200491348
4.200491348
4.200491348
4.200491348
4.200491348
4.203568631
4.203568631
4.200491348
4.200491348
4.197414065
4.197414065
4.200491348
4.200491348
4.206645914
4.206645914
4.203568631
4.203568631
4.203568631
4.203568631
4.200491348
4.200491348
4.203568631
4.203568631
4.209723197
4.209723197
4.209723197
4.209723197
4.197414065
4.197414065
4.197414065
4.197414065
4.200491348
4.200491348
4.203568631
4.203568631
4.203568631
4.203568631
4.203568631
4.203568631
4.200491348
4.200491348
4.200491348
4.200491348
4.200491348
4.203568631
4.203568631
4.200491348
4.200491348
4.200491348
4.200491348
4.203568631
4.203568631
4.206645914
4.206645914
4.206645914
4.206645914
4.200491348
4.200491348
4.200491348
4.200491348
4.197414065
4.197414065
4.200491348
4.200491348
4.206645914
4.206645914
4.206645914
4.206645914
4.200491348
4.200491348
4.203568631
4.203568631
4.203568631
4.203568631
4.203568631
4.203568631
4.206645914
4.206645914
4.197414065
4.197414065
4.197414065
4.197414065
4.197414065
4.200491348
4.200491348
4.203568631
4.203568631
4.203568631
4.203568631
4.200491348
4.200491348
4.200491348
4.200491348
4.203568631
4.203568631
4.209723197
4.209723197
4.206645914
4.206645914
4.203568631
4.203568631
4.203568631
4.203568631
4.203568631
4.203568631
4.203568631
4.203568631
4.203568631
4.203568631
4.203568631
4.203568631
4.206645914
4.206645914
4.200491348
4.200491348
4.203568631
4.203568631
4.203568631
4.203568631
4.200491348
4.200491348
4.200491348
4.200491348
4.200491348
4.200491348
4.200491348
4.206645914
4.206645914
4.206645914
4.206645914
4.206645914
4.206645914
4.200491348
4.200491348
4.203568631
4.203568631
4.203568631
4.203568631
4.206645914
4.206645914
4.200491348
4.200491348
4.203568631
4.203568631
4.206645914
4.206645914
4.206645914
4.206645914
4.206645914
4.206645914
4.200491348
4.200491348
4.200491348
4.200491348
4.203568631
4.203568631
4.206645914
4.206645914
4.203568631
4.203568631
4.200491348
4.200491348
4.200491348
4.203568631
4.203568631
4.206645914
4.206645914
4.21280048
4.21280048
4.203568631
4.203568631
4.200491348
4.200491348
4.200491348
4.200491348
4.203568631
4.203568631
4.206645914
4.206645914
4.206645914
4.206645914
4.203568631
4.203568631
4.200491348
4.200491348
4.200491348
4.200491348
4.206645914
4.206645914
4.206645914
4.206645914
4.203568631
4.203568631
4.203568631
4.203568631
4.203568631
4.203568631
4.209723197
4.209723197
4.21280048
4.21280048
4.21280048
4.200491348
4.200491348
4.200491348
4.200491348
4.203568631
4.203568631
4.203568631
4.203568631
4.206645914
4.206645914
4.203568631
4.203568631
4.200491348
4.200491348
4.203568631
4.203568631
4.206645914
4.206645914
4.209723197
4.209723197
4.206645914
4.206645914
4.200491348
4.200491348
4.203568631
4.203568631
4.206645914
4.206645914
4.206645914
4.206645914
4.200491348
4.200491348
4.200491348
4.200491348
4.203568631
4.203568631
4.203568631
4.203568631
4.203568631
4.206645914
4.206645914
4.200491348
4.200491348
4.197414065
4.197414065
4.200491348
4.200491348
4.206645914
4.206645914
4.206645914
4.206645914
4.200491348
4.200491348
4.200491348
4.200491348
4.203568631
4.203568631
4.203568631
4.203568631
4.206645914
4.206645914
4.203568631
4.203568631
4.197414065
4.197414065
4.200491348
4.200491348
4.203568631
4.203568631
4.206645914
4.206645914
4.203568631
4.203568631
4.203568631
4.203568631
4.206645914
4.206645914
4.206645914
4.206645914
4.206645914
4.203568631
4.203568631
4.200491348
4.200491348
4.200491348
4.200491348
4.203568631
4.203568631
4.209723197
4.209723197
4.206645914
4.206645914
4.200491348
4.200491348
4.194336782
4.194336782
4.203568631
4.203568631
4.209723197
4.209723197
4.209723197
4.209723197
4.200491348
4.200491348
4.200491348
4.200491348
4.203568631
4.203568631
4.206645914
4.206645914
4.203568631
4.203568631
4.200491348
4.200491348
4.200491348
4.200491348
4.203568631
4.203568631
4.203568631
4.209723197
4.209723197
4.206645914
4.206645914
4.203568631
4.203568631
4.200491348
4.200491348
4.200491348
4.200491348
4.206645914
4.206645914
4.206645914
4.206645914
4.206645914
4.206645914
4.200491348
4.200491348
4.203568631
4.203568631
4.206645914
4.206645914
4.203568631
4.203568631
4.203568631
4.203568631
4.200491348
4.200491348
4.200491348
4.200491348
4.206645914
4.206645914
4.206645914
4.206645914
4.203568631
4.203568631
4.203568631
4.203568631
4.203568631
4.203568631
4.203568631
4.209723197
4.209723197
4.206645914
4.206645914
4.203568631
4.203568631
4.200491348
4.200491348
4.200491348
4.200491348
4.203568631
4.203568631
4.203568631
4.203568631
4.203568631
4.203568631
4.206645914
4.206645914
4.203568631
4.203568631
4.203568631
4.203568631
4.203568631
4.203568631
4.200491348
4.200491348
4.200491348
4.200491348
4.203568631
4.203568631
4.206645914
4.206645914
4.206645914
4.206645914
4.203568631
4.203568631
4.200491348
4.200491348
4.200491348
4.206645914
4.206645914
4.209723197
4.209723197
4.209723197
4.209723197
4.203568631
4.203568631
4.200491348
4.200491348
4.200491348
4.200491348
4.203568631
4.203568631
4.203568631
4.203568631
4.200491348
4.200491348
4.200491348
4.200491348
4.203568631
4.203568631
4.206645914
4.206645914
4.206645914
4.206645914
4.203568631
4.203568631
4.203568631
4.203568631
4.209723197
4.209723197
4.206645914
4.206645914
4.209723197
4.209723197
4.203568631
4.203568631
4.203568631
4.200491348
4.200491348
4.209723197
4.209723197
4.209723197
4.209723197
4.197414065
4.197414065
4.197414065
4.197414065
4.197414065
4.197414065
4.203568631
4.203568631
4.206645914
4.206645914
4.209723197
4.209723197
4.200491348
4.200491348
4.200491348
4.200491348
4.203568631
4.203568631
4.206645914
4.206645914
4.203568631
4.203568631
4.203568631
4.203568631
4.203568631
4.203568631
4.209723197
4.209723197
4.209723197
4.209723197
4.209723197
4.209723197
4.209723197
4.203568631
4.203568631
4.197414065
4.197414065
4.203568631
4.203568631
4.206645914
4.206645914
4.206645914
4.206645914
4.206645914
4.206645914
4.203568631
4.203568631
4.206645914
4.206645914
4.21280048
4.21280048
4.209723197
4.209723197
4.200491348
4.200491348
4.203568631
4.203568631
4.197414065
4.197414065
4.200491348
4.200491348
4.203568631
4.203568631
4.200491348
4.200491348
4.203568631
4.203568631
4.206645914
4.206645914
4.203568631
4.203568631
4.203568631
4.203568631
4.203568631
4.200491348
4.200491348
4.200491348
4.200491348
4.203568631
4.203568631
4.209723197
4.209723197
4.203568631
4.203568631
4.197414065
4.197414065
4.197414065
4.197414065
4.203568631
4.203568631
4.203568631
4.203568631
4.203568631
4.203568631
4.200491348
4.200491348
4.200491348
4.200491348
4.206645914
4.206645914
4.209723197
4.209723197
4.206645914
4.206645914
4.203568631
4.203568631
4.197414065
4.197414065
4.200491348
4.200491348
4.200491348
4.200491348
4.200491348
4.200491348
4.200491348
4.200491348
4.200491348
4.200491348
4.200491348
4.203568631
4.203568631
4.203568631
4.203568631
4.203568631
4.203568631
4.203568631
4.203568631
4.209723197
4.209723197
4.203568631
4.203568631
4.200491348
4.200491348
4.200491348
4.200491348
4.197414065
4.197414065
4.197414065
4.197414065
4.203568631
4.203568631
4.203568631
4.203568631
4.203568631
4.203568631
4.200491348
4.200491348
4.197414065
4.197414065
4.203568631
4.203568631
4.203568631
4.203568631
4.203568631
4.200491348
4.200491348
4.200491348
4.200491348
4.197414065
4.197414065
4.203568631
4.203568631
4.206645914
4.206645914
4.200491348
4.200491348
4.200491348
4.200491348
4.200491348
4.200491348
4.203568631
4.203568631
4.206645914
4.206645914
4.203568631
4.203568631
4.200491348
4.200491348
4.197414065
4.197414065
4.200491348
4.200491348
4.206645914
4.206645914
4.206645914
4.206645914
4.197414065
4.197414065
4.200491348
4.200491348
4.203568631
4.203568631
4.203568631
4.200491348
4.200491348
4.197414065
4.197414065
4.197414065
4.197414065
4.197414065
4.197414065
4.203568631
4.203568631
4.203568631
4.203568631
4.200491348
4.200491348
4.200491348
4.200491348
4.200491348
4.200491348
4.200491348
4.200491348
4.203568631
4.203568631
4.200491348
4.200491348
4.197414065
4.197414065
4.200491348
4.200491348
4.203568631
4.203568631
4.203568631
4.203568631
4.200491348
4.200491348
4.200491348
4.200491348
4.203568631
4.203568631
4.203568631
4.197414065
4.197414065
4.200491348
4.200491348
4.197414065
4.197414065
4.194336782
4.194336782
4.200491348
4.200491348
4.200491348
4.200491348
4.200491348
4.200491348
4.200491348
4.200491348
4.200491348
4.200491348
4.197414065
4.197414065
4.200491348
4.200491348
4.203568631
4.203568631
4.197414065
4.197414065
4.197414065
4.197414065
4.200491348
4.200491348
4.206645914
4.206645914
4.203568631
4.203568631
4.200491348
4.200491348
4.194336782
4.194336782
4.194336782
4.200491348
4.200491348
4.203568631
4.203568631
4.200491348
4.200491348
4.200491348
4.200491348
4.197414065
4.197414065
4.197414065
4.197414065
4.203568631
4.203568631
4.203568631
4.203568631
4.200491348
4.200491348
4.197414065
4.197414065
4.200491348
4.200491348
4.200491348
4.200491348
4.200491348
4.200491348
4.200491348
4.200491348
4.197414065
4.197414065
4.200491348
4.200491348
4.203568631
4.203568631
4.197414065
4.197414065
4.194336782
4.194336782
4.194336782
4.194336782
4.194336782
4.200491348
4.200491348
4.203568631
4.203568631
4.203568631
4.203568631
4.203568631
4.203568631
4.197414065
4.197414065
4.197414065
4.197414065
4.200491348
4.200491348
4.203568631
4.203568631
4.200491348
4.200491348
4.197414065
4.197414065
4.200491348
4.200491348
4.203568631
4.203568631
4.203568631
4.203568631
4.200491348
4.200491348
4.197414065
4.197414065
4.200491348
4.200491348
4.200491348
4.200491348
4.203568631
4.203568631
4.203568631
4.203568631
4.203568631
4.200491348
4.200491348
4.200491348
4.200491348
4.206645914
4.206645914
4.203568631
4.203568631
4.200491348
4.200491348
4.197414065
4.197414065
4.200491348
4.200491348
4.203568631
4.203568631
4.203568631
4.203568631
4.203568631
4.203568631
4.200491348
4.200491348
4.200491348
4.200491348
4.206645914
4.206645914
4.203568631
4.203568631
4.200491348
4.200491348
4.200491348
4.200491348
4.200491348
4.200491348
4.203568631
4.203568631
4.203568631
4.203568631
4.203568631
4.200491348
4.200491348
4.200491348
4.200491348
4.197414065
4.197414065
4.203568631
4.203568631
4.200491348
4.200491348
4.194336782
4.194336782
4.194336782
4.194336782
4.197414065
4.197414065
4.200491348
4.200491348
4.203568631
4.203568631
4.200491348
4.200491348
4.197414065
4.197414065
4.200491348
4.200491348
4.203568631
4.203568631
4.203568631
4.203568631
4.203568631
4.203568631
4.203568631
4.203568631
4.203568631
4.203568631
4.206645914
4.206645914
4.206645914
4.206645914
4.206645914
4.200491348
4.200491348
4.197414065
4.197414065
4.197414065
4.197414065
4.206645914
4.206645914
4.209723197
4.209723197
4.200491348
4.200491348
4.200491348
4.200491348
4.200491348
4.200491348
4.200491348
4.200491348
4.203568631
4.203568631
4.203568631
4.203568631
4.197414065
4.197414065
4.200491348
4.200491348
4.203568631
4.203568631
4.206645914
4.206645914
4.203568631
4.203568631
4.200491348
4.200491348
4.200491348
4.200491348
4.203568631
4.203568631
4.203568631
4.206645914
4.206645914
4.203568631
4.203568631
4.197414065
4.197414065
4.200491348
4.200491348
4.206645914
4.206645914
4.203568631
4.203568631
4.197414065
4.197414065
4.197414065
4.197414065
4.197414065
4.197414065
4.203568631
4.203568631
4.203568631
4.203568631
4.200491348
4.200491348
4.200491348
4.200491348
4.200491348
4.200491348
4.203568631
4.203568631
4.206645914
4.206645914
4.206645914
4.206645914
4.200491348
4.200491348
4.200491348
4.200491348
4.200491348
4.203568631
4.203568631
4.203568631
4.203568631
4.200491348
4.200491348
4.197414065
4.197414065
4.200491348
4.200491348
4.203568631
4.203568631
4.206645914
4.206645914
4.200491348
4.200491348
4.197414065
4.197414065
4.197414065
4.197414065
4.206645914
4.206645914
4.206645914
4.206645914
4.200491348
4.200491348
4.197414065
4.197414065
4.200491348
4.200491348
4.206645914
4.206645914
4.203568631
4.203568631
4.197414065
4.197414065
4.197414065
4.197414065
4.197414065
4.200491348
4.200491348
4.206645914
4.206645914
4.203568631
4.203568631
4.200491348
4.200491348
4.197414065
4.197414065
4.200491348
4.200491348
4.203568631
4.203568631
4.203568631
4.203568631
4.200491348
4.200491348
4.200491348
4.200491348
4.200491348
4.200491348
4.203568631
4.203568631
4.203568631
4.203568631
4.200491348
4.200491348
4.200491348
4.200491348
4.200491348
4.200491348
4.206645914
4.206645914
4.203568631
4.203568631
4.203568631
4.203568631
4.203568631
4.203568631
4.203568631
4.200491348
4.200491348
4.200491348
4.200491348
4.203568631
4.203568631
4.200491348
4.200491348
4.194336782
4.194336782
4.194336782
4.194336782
4.200491348
4.200491348
4.200491348
4.200491348
4.200491348
4.200491348
4.197414065
4.197414065
4.200491348
4.200491348
4.203568631
4.203568631
4.200491348
4.200491348
4.197414065
4.197414065
4.197414065
4.197414065
4.200491348
4.200491348
4.200491348
4.200491348
4.200491348
4.200491348
4.200491348
4.200491348
4.200491348
4.194336782
4.194336782
4.197414065
4.197414065
4.200491348
4.200491348
4.200491348
4.200491348
4.197414065
4.197414065
4.194336782
4.194336782
4.197414065
4.197414065
4.203568631
4.203568631
4.203568631
4.203568631
4.200491348
4.200491348
4.197414065
4.197414065
4.200491348
4.200491348
4.206645914
4.206645914
4.200491348
4.200491348
4.197414065
4.197414065
4.194336782
4.194336782
4.197414065
4.197414065
4.200491348
4.200491348
4.200491348
4.200491348
4.200491348
4.194336782
4.194336782
4.197414065
4.197414065
4.200491348
4.200491348
4.203568631
4.203568631
4.200491348
4.200491348
4.194336782
4.194336782
4.194336782
4.194336782
4.197414065
4.197414065
4.203568631
4.203568631
4.203568631
4.203568631
4.203568631
4.203568631
4.197414065
4.197414065
4.200491348
4.200491348
4.206645914
4.206645914
4.203568631
4.203568631
4.200491348
4.200491348
4.200491348
4.200491348
4.200491348
4.200491348
4.203568631
4.203568631
4.200491348
4.200491348
4.200491348
4.197414065
4.197414065
4.200491348
4.200491348
4.197414065
4.197414065
4.206645914
4.206645914
4.203568631
4.203568631
4.197414065
4.197414065
4.197414065
4.197414065
4.200491348
4.200491348
4.203568631
4.203568631
4.200491348
4.200491348
4.200491348
4.200491348
4.197414065
4.197414065
4.200491348
4.200491348
4.203568631
4.203568631
4.200491348
4.200491348
4.203568631
4.203568631
4.200491348
4.200491348
4.203568631
4.203568631
4.203568631
4.203568631
4.203568631
4.203568631
4.203568631
4.200491348
4.200491348
4.200491348
4.200491348
4.206645914
4.206645914
4.21280048
4.21280048
4.200491348
4.200491348
4.200491348
4.200491348
4.197414065
4.197414065
4.200491348
4.200491348
4.203568631
4.203568631
4.200491348
4.200491348
4.200491348
4.200491348
4.200491348
4.200491348
4.197414065
4.197414065
4.203568631
4.203568631
4.206645914
4.206645914
4.203568631
4.203568631
4.197414065
4.197414065
4.200491348
4.200491348
4.200491348
4.206645914
4.206645914
4.21280048
4.21280048
4.203568631
4.203568631
4.197414065
4.197414065
4.200491348
4.200491348
4.203568631
4.203568631
4.203568631
4.203568631
4.206645914
4.206645914
4.200491348
4.200491348
4.206645914
4.206645914
4.203568631
4.203568631
4.203568631
4.203568631
4.209723197
4.209723197
4.21280048
4.21280048
4.218955046
4.218955046
4.200491348
4.200491348
4.197414065
4.197414065
4.206645914
4.206645914
4.197414065
4.197414065
4.191259499
4.191259499
4.191259499
4.206645914
4.206645914
4.197414065
4.197414065
4.197414065
4.197414065
4.194336782
4.194336782
4.203568631
4.203568631
4.206645914
4.206645914
4.203568631
4.203568631
4.200491348
4.200491348
4.200491348
4.200491348
4.200491348
4.200491348
4.209723197
4.209723197
4.234341461
4.234341461
4.246650594
4.246650594
4.194336782
4.194336782
4.178950367
4.178950367
4.191259499
4.191259499
4.191259499
4.191259499
4.188182216
4.188182216
4.194336782
4.194336782
4.194336782
4.203568631
4.203568631
4.21280048
4.21280048
4.21280048
4.21280048
4.228186895
4.228186895
4.258959726
4.258959726
4.274346141
4.274346141
4.243573311
4.243573311
4.194336782
4.194336782
4.209723197
4.209723197
4.265114292
4.265114292
4.249727877
4.249727877
4.246650594
4.246650594
4.351278217
4.351278217
4.255882443
4.255882443
4.120481989
4.120481989
4.200491348
4.200491348
4.218955046
4.218955046
4.108172857
4.108172857
4.135868404
4.135868404
4.135868404
4.172795801
4.172795801
4.206645914
4.206645914
4.277423424
4.277423424
4.382051047
4.382051047
4.280500707
4.280500707
4.271268858
4.271268858
4.268191575
4.268191575
4.348200934
4.348200934
4.32358267
4.32358267
4.332814519
4.332814519
4.243573311
4.243573311
4.412823878
4.412823878
4.49591052
4.49591052
4.215877763
4.215877763
4.11125014
4.11125014
4.397437462
4.397437462
4.14202297
4.14202297
4.185104933
4.185104933
4.302041688
4.302041688
4.243573311
4.243573311
4.243573311
4.178950367
4.178950367
4.215877763
4.215877763
4.42513301
4.42513301
4.520528784
4.520528784
4.428210293
4.428210293
4.594383577
4.594383577
3.978926969
3.978926969
4.234341461
4.234341461
4.726706748
4.726706748
4.302041688
4.302041688
4.175873084
4.175873084
4.148177536
4.148177536
4.188182216
4.188182216
4.412823878
4.412823878
4.378973764
4.378973764
4.517451501
4.517451501
4.394360179
4.394360179
4.38512833
4.38512833
4.255882443
4.255882443
4.255882443
4.231264178
4.231264178
4.292809839
4.292809839
4.308196254
4.308196254
4.363587349
4.363587349
4.338969085
4.338969085
4.357432783
4.357432783
4.412823878
4.412823878
4.335891802
4.335891802
4.022008932
4.022008932
3.960463271
3.960463271
4.477446821
4.477446821
4.582074445
4.582074445
4.286655273
4.286655273
4.320505387
4.320505387
4.646697389
4.646697389
4.634388256
4.634388256
4.394360179
4.394360179
4.302041688
4.302041688
4.3543555
4.3543555
4.3543555
4.378973764
4.378973764
4.514374218
4.514374218
4.14202297
4.14202297
4.222032329
4.222032329
4.31435082
4.31435082
4.689779351
4.689779351
4.369741915
4.369741915
4.302041688
4.302041688
4.351278217
4.351278217
4.329737236
4.329737236
4.31435082
4.31435082
4.292809839
4.292809839
4.31435082
4.31435082
4.465137689
4.465137689
4.735938597
4.735938597
4.098941008
4.098941008
4.089709159
4.089709159
4.191259499
4.191259499
4.505142369
4.505142369
4.548224331
4.548224331
4.548224331
4.135868404
4.135868404
4.295887122
4.295887122
4.545147048
4.545147048
4.409746595
4.409746595
4.194336782
4.194336782
4.38512833
4.38512833
4.511296935
4.511296935
4.520528784
4.520528784
4.240496028
4.240496028
4.28357799
4.28357799
4.378973764
4.378973764
4.511296935
4.511296935
4.477446821
4.477446821
4.360510066
4.360510066
4.21280048
4.21280048
4.114327423
4.114327423
4.31435082
4.31435082
4.422055727
4.422055727
4.406669312
4.406669312
4.406669312
4.498987803
4.498987803
4.378973764
4.378973764
4.166641235
4.166641235
4.434364859
4.434364859
4.45590584
4.45590584
4.517451501
4.517451501
4.403592029
4.403592029
4.505142369
4.505142369
4.271268858
4.271268858
4.415901161
4.415901161
4.612847275
4.612847275
4.305118971
4.305118971
4.222032329
4.222032329
4.271268858
4.271268858
4.366664632
4.366664632
4.366664632
4.366664632
4.031240781
4.031240781
4.14202297
4.14202297
4.120481989
4.120481989
4.120481989
4.305118971
4.305118971
4.63746554
4.63746554
4.76978871
4.76978871
4.563610747
4.563610747
4.335891802
4.335891802
4.292809839
4.292809839
4.32358267
4.32358267
4.326659953
4.326659953
4.560533464
4.560533464
4.551301614
4.551301614
4.28357799
4.28357799
4.14202297
4.14202297
4.188182216
4.188182216
4.375896481
4.375896481
4.625156407
4.625156407
4.440519425
4.440519425
4.145100253
4.145100253
4.209723197
4.209723197
4.342046368
4.342046368
4.363587349
4.363587349
4.363587349
4.511296935
4.511296935
4.311273537
4.311273537
4.255882443
4.255882443
4.215877763
4.215877763
4.42513301
4.42513301
4.723629465
4.723629465
4.400514746
4.400514746
4.265114292
4.265114292
4.662083804
4.662083804
4.474369538
4.474369538
4.255882443
4.255882443
4.077400026
4.077400026
4.157409385
4.157409385
4.351278217
4.351278217
4.335891802
4.335891802
4.551301614
4.551301614
4.735938597
4.735938597
4.163563952
4.163563952
4.178950367
4.178950367
4.178950367
4.218955046
4.218955046
4.289732556
4.289732556
4.42513301
4.42513301
4.446673991
4.446673991
4.366664632
4.366664632
4.406669312
4.406669312
4.498987803
4.498987803
4.548224331
4.548224331
4.172795801
4.172795801
4.388205613
4.388205613
4.175873084
4.175873084
4.452828557
4.452828557
4.135868404
4.135868404
4.375896481
4.375896481
4.357432783
4.357432783
4.520528784
4.520528784
4.529760633
4.529760633
4.3543555
4.3543555
4.200491348
4.200491348
4.200491348
4.246650594
4.246650594
4.378973764
4.378973764
4.422055727
4.422055727
4.357432783
4.357432783
4.711320332
4.711320332
4.317428103
4.317428103
4.234341461
4.234341461
4.255882443
4.255882443
4.548224331
4.548224331
4.671315653
4.671315653
4.351278217
4.351278217
4.320505387
4.320505387
4.080477309
4.080477309
4.231264178
4.231264178
4.415901161
4.415901161
4.317428103
4.317428103
4.360510066
4.360510066
4.298964405
4.298964405
4.418978444
4.418978444
4.32358267
4.32358267
4.32358267
4.486678671
4.486678671
4.735938597
4.735938597
4.3543555
4.3543555
4.42513301
4.42513301
4.369741915
4.369741915
4.394360179
4.394360179
4.49591052
4.49591052
4.545147048
4.545147048
4.14202297
4.14202297
4.175873084
4.175873084
4.298964405
4.298964405
4.326659953
4.326659953
4.277423424
4.277423424
4.378973764
4.378973764
4.360510066
4.360510066
4.372819198
4.372819198
4.345123651
4.345123651
4.277423424
4.277423424
4.326659953
4.326659953
4.326659953
4.342046368
4.342046368
4.342046368
4.342046368
4.326659953
4.326659953
4.317428103
4.317428103
4.348200934
4.348200934
4.302041688
4.302041688
4.317428103
4.317428103
4.378973764
4.378973764
4.388205613
4.388205613
4.329737236
4.329737236
4.32358267
4.32358267
4.302041688
4.302041688
4.32358267
4.32358267
4.329737236
4.329737236
4.311273537
4.311273537
4.348200934
4.348200934
4.342046368
4.342046368
4.302041688
4.302041688
4.302041688
4.302041688
4.302041688
4.335891802
4.335891802
4.32358267
4.32358267
4.31435082
4.31435082
4.31435082
4.31435082
4.32358267
4.32358267
4.31435082
4.31435082
4.308196254
4.308196254
4.298964405
4.298964405
4.298964405
4.298964405
4.317428103
4.317428103
4.338969085
4.338969085
4.348200934
4.348200934
4.391282896
4.391282896
4.265114292
4.265114292
4.197414065
4.197414065
4.25280516
4.25280516
4.274346141
4.274346141
4.295887122
4.295887122
4.289732556
4.289732556
4.289732556
4.289732556
4.289732556
4.280500707
4.280500707
4.289732556
4.289732556
4.292809839
4.292809839
4.329737236
4.329737236
4.363587349
4.363587349
4.366664632
4.366664632
4.21280048
4.21280048
4.194336782
4.194336782
4.258959726
4.258959726
4.25280516
4.25280516
4.258959726
4.258959726
4.271268858
4.271268858
4.265114292
4.265114292
4.240496028
4.240496028
4.246650594
4.246650594
4.265114292
4.265114292
4.222032329
4.222032329
4.25280516
4.25280516
4.268191575
4.268191575
4.268191575
4.277423424
4.277423424
4.28357799
4.28357799
4.271268858
4.271268858
4.265114292
4.265114292
4.274346141
4.274346141
4.28357799
4.28357799
4.286655273
4.286655273
4.286655273
4.286655273
4.280500707
4.280500707
4.271268858
4.271268858
4.289732556
4.289732556
4.280500707
4.280500707
4.271268858
4.271268858
4.268191575
4.268191575
4.28357799
4.28357799
4.262037009
4.262037009
4.271268858
4.271268858
4.280500707
4.280500707
4.268191575
4.268191575
4.268191575
4.258959726
4.258959726
4.274346141
4.274346141
4.277423424
4.277423424
4.271268858
4.271268858
4.271268858
4.271268858
4.271268858
4.271268858
4.277423424
4.277423424
4.289732556
4.289732556
4.28357799
4.28357799
4.277423424
4.277423424
4.271268858
4.271268858
4.274346141
4.274346141
4.268191575
4.268191575
4.258959726
4.258959726
4.268191575
4.268191575
4.271268858
4.271268858
4.28357799
4.28357799
4.280500707
4.280500707
4.271268858
4.271268858
4.271268858
4.271268858
4.271268858
4.271268858
4.271268858
4.280500707
4.280500707
4.258959726
4.258959726
4.258959726
4.258959726
4.271268858
4.271268858
4.277423424
4.277423424
4.280500707
4.280500707
4.280500707
4.280500707
4.280500707
4.280500707
4.274346141
4.274346141
4.271268858
4.271268858
4.271268858
4.271268858
4.268191575
4.268191575
4.268191575
4.268191575
4.268191575
4.268191575
4.268191575
4.268191575
4.286655273
4.286655273
4.28357799
4.28357799
4.271268858
4.271268858
4.271268858
4.271268858
4.271268858
4.262037009
4.262037009
4.265114292
4.265114292
4.274346141
4.274346141
4.277423424
4.277423424
4.265114292
4.265114292
4.258959726
4.258959726
4.268191575
4.268191575
4.271268858
4.271268858
4.271268858
4.271268858
4.268191575
4.268191575
4.271268858
4.271268858
4.271268858
4.271268858
4.280500707
4.280500707
4.289732556
4.289732556
4.280500707
4.280500707
4.28357799
4.28357799
4.286655273
4.286655273
4.271268858
4.271268858
4.271268858
4.265114292
4.265114292
4.265114292
4.265114292
4.265114292
4.265114292
4.268191575
4.268191575
4.271268858
4.271268858
4.274346141
4.274346141
4.268191575
4.268191575
4.265114292
4.265114292
4.274346141
4.274346141
4.274346141
4.274346141
4.271268858
4.271268858
4.268191575
4.268191575
4.271268858
4.271268858
4.277423424
4.277423424
4.274346141
4.274346141
4.271268858
4.271268858
4.274346141
4.274346141
4.274346141
4.274346141
4.274346141
4.274346141
4.274346141
4.277423424
4.277423424
4.268191575
4.268191575
4.268191575
4.268191575
4.268191575
4.268191575
4.277423424
4.277423424
4.277423424
4.277423424
4.271268858
4.271268858
4.262037009
4.262037009
4.271268858
4.271268858
4.271268858
4.271268858
4.265114292
4.265114292
4.265114292
4.265114292
4.265114292
4.265114292
4.268191575
4.268191575
4.271268858
4.271268858
4.271268858
4.271268858
4.274346141
4.274346141
4.268191575
4.268191575
4.265114292
4.265114292
4.274346141
4.274346141
4.274346141
4.274346141
4.274346141
4.268191575
4.268191575
4.265114292
4.265114292
4.271268858
4.271268858
4.280500707
4.280500707
4.280500707
4.280500707
4.268191575
4.268191575
4.268191575
4.268191575
4.271268858
4.271268858
4.268191575
4.268191575
4.265114292
4.265114292
4.268191575
4.268191575
4.262037009
4.262037009
4.271268858
4.271268858
4.268191575
4.268191575
4.271268858
4.271268858
4.262037009
4.262037009
4.258959726
4.258959726
4.265114292
4.265114292
4.265114292
4.271268858
4.271268858
4.274346141
4.274346141
4.265114292
4.265114292
4.262037009
4.262037009
4.265114292
4.265114292
4.268191575
4.268191575
4.271268858
4.271268858
4.268191575
4.268191575
4.265114292
4.265114292
4.271268858
4.271268858
4.277423424
4.277423424
4.277423424
4.277423424
4.271268858
4.271268858
4.268191575
4.268191575
4.265114292
4.265114292
4.268191575
4.268191575
4.271268858
4.271268858
4.265114292
4.265114292
4.265114292
4.265114292
4.265114292
4.268191575
4.268191575
4.265114292
4.265114292
4.271268858
4.271268858
4.268191575
4.268191575
4.258959726
4.258959726
4.258959726
4.258959726
4.265114292
4.265114292
4.268191575
4.268191575
4.265114292
4.265114292
4.265114292
4.265114292
4.265114292
4.265114292
4.271268858
4.271268858
4.271268858
4.271268858
4.271268858
4.271268858
4.265114292
4.265114292
4.268191575
4.268191575
4.265114292
4.265114292
4.265114292
4.265114292
4.265114292
4.265114292
4.265114292
4.265114292
4.265114292
4.265114292
4.265114292
4.262037009
4.262037009
4.262037009
4.262037009
4.258959726
4.258959726
4.265114292
4.265114292
4.268191575
4.268191575
4.271268858
4.271268858
4.265114292
4.265114292
4.262037009
4.262037009
4.262037009
4.262037009
4.262037009
4.262037009
4.271268858
4.271268858
4.271268858
4.271268858
4.262037009
4.262037009
4.258959726
4.258959726
4.265114292
4.265114292
4.268191575
4.268191575
4.271268858
4.271268858
4.271268858
4.271268858
4.271268858
4.262037009
4.262037009
4.262037009
4.262037009
4.271268858
4.271268858
4.271268858
4.271268858
4.265114292
4.265114292
4.258959726
4.258959726
4.268191575
4.268191575
4.268191575
4.268191575
4.262037009
4.262037009
4.262037009
4.262037009
4.258959726
4.258959726
4.258959726
4.258959726
4.265114292
4.265114292
4.265114292
4.265114292
4.265114292
4.265114292
4.262037009
4.262037009
4.265114292
4.265114292
4.265114292
4.265114292
4.265114292
4.265114292
4.265114292
4.262037009
4.262037009
4.265114292
4.265114292
4.265114292
4.265114292
4.262037009
4.262037009
4.262037009
4.262037009
4.265114292
4.265114292
4.265114292
4.265114292
4.265114292
4.265114292
4.265114292
4.265114292
4.258959726
4.258959726
4.258959726
4.258959726
4.262037009
4.262037009
4.268191575
4.268191575
4.265114292
4.265114292
4.265114292
4.265114292
4.258959726
4.258959726
4.258959726
4.258959726
4.262037009
4.262037009
4.262037009
4.262037009
4.265114292
4.265114292
4.265114292
4.262037009
4.262037009
4.262037009
4.262037009
4.262037009
4.262037009
4.262037009
4.262037009
4.265114292
4.265114292
4.258959726
4.258959726
4.265114292
4.265114292
4.262037009
4.262037009
4.265114292
4.265114292
4.262037009
4.262037009
4.258959726
4.258959726
4.262037009
4.262037009
4.258959726
4.258959726
4.258959726
4.258959726
4.265114292
4.265114292
4.262037009
4.262037009
4.258959726
4.258959726
4.268191575
4.268191575
4.271268858
4.271268858
4.271268858
4.258959726
4.258959726
4.255882443
4.255882443
4.258959726
4.258959726
4.262037009
4.262037009
4.265114292
4.265114292
4.262037009
4.262037009
4.258959726
4.258959726
4.258959726
4.258959726
4.258959726
4.258959726
4.265114292
4.265114292
4.262037009
4.262037009
4.258959726
4.258959726
4.258959726
4.258959726
4.258959726
4.258959726
4.265114292
4.265114292
4.262037009
4.262037009
4.262037009
4.262037009
4.262037009
4.262037009
4.258959726
4.258959726
4.258959726
4.265114292
4.265114292
4.277423424
4.277423424
4.280500707
4.280500707
4.255882443
4.255882443
4.249727877
4.249727877
4.258959726
4.258959726
4.271268858
4.271268858
4.255882443
4.255882443
4.25280516
4.25280516
4.255882443
4.255882443
4.262037009
4.262037009
4.262037009
4.262037009
4.258959726
4.258959726
4.258959726
4.258959726
4.258959726
4.258959726
4.262037009
4.262037009
4.262037009
4.262037009
4.262037009
4.262037009
4.262037009
4.262037009
4.265114292
4.265114292
4.265114292
4.268191575
4.268191575
4.268191575
4.268191575
4.258959726
4.258959726
4.255882443
4.255882443
4.255882443
4.255882443
4.255882443
4.255882443
4.262037009
4.262037009
4.258959726
4.258959726
4.25280516
4.25280516
4.255882443
4.255882443
4.262037009
4.262037009
4.262037009
4.262037009
4.265114292
4.265114292
4.255882443
4.255882443
4.25280516
4.25280516
4.258959726
4.258959726
4.258959726
4.258959726
4.25280516
4.25280516
4.25280516
4.25280516
4.25280516
4.258959726
4.258959726
4.255882443
4.255882443
4.258959726
4.258959726
4.262037009
4.262037009
4.258959726
4.258959726
4.255882443
4.255882443
4.255882443
4.255882443
4.255882443
4.255882443
4.255882443
4.255882443
4.255882443
4.255882443
4.265114292
4.265114292
4.268191575
4.268191575
4.268191575
4.268191575
4.258959726
4.258959726
4.258959726
4.258959726
4.255882443
4.255882443
4.255882443
4.255882443
4.255882443
4.255882443
4.262037009
4.262037009
4.262037009
4.258959726
4.258959726
4.258959726
4.258959726
4.258959726
4.258959726
4.258959726
4.258959726
4.255882443
4.255882443
4.255882443
4.255882443
4.258959726
4.258959726
4.255882443
4.255882443
4.258959726
4.258959726
4.25280516
4.25280516
4.25280516
4.25280516
4.258959726
4.258959726
4.262037009
4.262037009
4.258959726
4.258959726
4.255882443
4.255882443
4.255882443
4.255882443
4.258959726
4.258959726
4.268191575
4.268191575
4.262037009
4.262037009
4.255882443
4.255882443
4.255882443
4.249727877
4.249727877
4.262037009
4.262037009
4.265114292
4.265114292
4.255882443
4.255882443
4.249727877
4.249727877
4.249727877
4.249727877
4.258959726
4.258959726
4.255882443
4.255882443
4.255882443
4.255882443
4.255882443
4.255882443
4.25280516
4.25280516
4.255882443
4.255882443
4.258959726
4.258959726
4.258959726
4.258959726
4.255882443
4.255882443
4.255882443
4.255882443
4.255882443
4.255882443
4.258959726
4.258959726
4.262037009
4.262037009
4.262037009
4.255882443
4.255882443
4.249727877
4.249727877
4.255882443
4.255882443
4.258959726
4.258959726
4.258959726
4.258959726
4.265114292
4.265114292
4.258959726
4.258959726
4.258959726
4.258959726
4.255882443
4.255882443
4.249727877
4.249727877
4.249727877
4.249727877
4.255882443
4.255882443
4.255882443
4.255882443
4.255882443
4.255882443
4.25280516
4.25280516
4.249727877
4.249727877
4.25280516
4.25280516
4.258959726
4.258959726
4.262037009
4.262037009
4.262037009
4.255882443
4.255882443
4.25280516
4.25280516
4.25280516
4.25280516
4.258959726
4.258959726
4.262037009
4.262037009
4.262037009
4.262037009
4.255882443
4.255882443
4.255882443
4.255882443
4.258959726
4.258959726
4.258959726
4.258959726
4.258959726
4.258959726
4.25280516
4.25280516
4.249727877
4.249727877
4.258959726
4.258959726
4.258959726
4.258959726
4.262037009
4.262037009
4.258959726
4.258959726
4.258959726
4.258959726
4.25280516
4.25280516
4.255882443
4.255882443
4.255882443
4.255882443
4.255882443
4.25280516
4.25280516
4.255882443
4.255882443
4.258959726
4.258959726
4.262037009
4.262037009
4.255882443
4.255882443
4.255882443
4.255882443
4.258959726
4.258959726
4.271268858
4.271268858
4.274346141
4.274346141
4.265114292
4.265114292
4.255882443
4.255882443
4.258959726
4.258959726
4.255882443
4.255882443
4.258959726
4.258959726
4.262037009
4.262037009
4.255882443
4.255882443
4.249727877
4.249727877
4.255882443
4.255882443
4.255882443
4.268191575
4.268191575
4.25280516
4.25280516
4.25280516
4.25280516
4.25280516
4.25280516
4.255882443
4.255882443
4.262037009
4.262037009
4.262037009
4.262037009
4.255882443
4.255882443
4.255882443
4.255882443
4.262037009
4.262037009
4.262037009
4.262037009
4.258959726
4.258959726
4.258959726
4.258959726
4.262037009
4.262037009
4.265114292
4.265114292
4.258959726
4.258959726
4.258959726
4.258959726
4.25280516
4.25280516
4.255882443
4.255882443
4.255882443
4.262037009
4.262037009
4.274346141
4.274346141
4.265114292
4.265114292
4.249727877
4.249727877
4.25280516
4.25280516
4.265114292
4.265114292
4.265114292
4.265114292
4.25280516
4.25280516
4.249727877
4.249727877
4.255882443
4.255882443
4.258959726
4.258959726
4.265114292
4.265114292
4.258959726
4.258959726
4.255882443
4.255882443
4.255882443
4.255882443
4.255882443
4.255882443
4.262037009
4.262037009
4.262037009
4.262037009
4.249727877
4.249727877
4.255882443
4.255882443
4.255882443
4.265114292
4.265114292
4.265114292
4.265114292
4.262037009
4.262037009
4.258959726
4.258959726
4.265114292
4.265114292
4.268191575
4.268191575
4.249727877
4.249727877
4.25280516
4.25280516
4.246650594
4.246650594
4.25280516
4.25280516
4.258959726
4.258959726
4.274346141
4.274346141
4.280500707
4.280500707
4.249727877
4.249727877
4.243573311
4.243573311
4.249727877
4.249727877
4.25280516
4.25280516
4.25280516
4.25280516
4.249727877
4.249727877
4.249727877
4.25280516
4.25280516
4.258959726
4.258959726
4.262037009
4.262037009
4.262037009
4.262037009
4.258959726
4.258959726
4.258959726
4.258959726
4.268191575
4.268191575
4.255882443
4.255882443
4.25280516
4.25280516
4.25280516
4.25280516
4.258959726
4.258959726
4.271268858
4.271268858
4.271268858
4.271268858
4.258959726
4.258959726
4.246650594
4.246650594
4.25280516
4.25280516
4.255882443
4.255882443
4.258959726
4.258959726
4.258959726
4.258959726
4.258959726
4.255882443
4.255882443
4.271268858
4.271268858
4.268191575
4.268191575
4.249727877
4.249727877
4.25280516
4.25280516
4.25280516
4.25280516
4.25280516
4.25280516
4.258959726
4.258959726
4.262037009
4.262037009
4.262037009
4.262037009
4.258959726
4.258959726
4.258959726
4.258959726
4.262037009
4.262037009
4.265114292
4.265114292
4.258959726
4.258959726
4.255882443
4.255882443
4.258959726
4.258959726
4.268191575
4.268191575
4.274346141
4.274346141
4.262037009
4.262037009
4.262037009
4.255882443
4.255882443
4.258959726
4.258959726
4.262037009
4.262037009
4.255882443
4.255882443
4.265114292
4.265114292
4.274346141
4.274346141
4.255882443
4.255882443
4.25280516
4.25280516
4.280500707
4.280500707
4.271268858
4.271268858
4.234341461
4.234341461
4.240496028
4.240496028
4.25280516
4.25280516
4.258959726
4.258959726
4.255882443
4.255882443
4.255882443
4.255882443
4.258959726
4.258959726
4.258959726
4.258959726
4.262037009
4.262037009
4.262037009
4.258959726
4.258959726
4.258959726
4.258959726
4.262037009
4.262037009
4.265114292
4.265114292
4.265114292
4.265114292
4.255882443
4.255882443
4.25280516
4.25280516
4.25280516
4.25280516
4.258959726
4.258959726
4.262037009
4.262037009
4.262037009
4.262037009
4.258959726
4.258959726
4.255882443
4.255882443
4.268191575
4.268191575
4.258959726
4.258959726
4.255882443
4.255882443
4.255882443
4.255882443
4.255882443
4.255882443
4.258959726
4.258959726
4.258959726
4.265114292
4.265114292
4.265114292
4.265114292
4.265114292
4.265114292
4.255882443
4.255882443
4.25280516
4.25280516
4.25280516
4.25280516
4.258959726
4.258959726
4.255882443
4.255882443
4.255882443
4.255882443
4.258959726
4.258959726
4.265114292
4.265114292
4.277423424
4.277423424
4.255882443
4.255882443
4.246650594
4.246650594
4.258959726
4.258959726
4.262037009
4.262037009
4.258959726
4.258959726
4.258959726
4.258959726
4.258959726
4.258959726
4.265114292
4.265114292
4.265114292
4.262037009
4.262037009
4.258959726
4.258959726
4.25280516
4.25280516
4.255882443
4.255882443
4.265114292
4.265114292
4.262037009
4.262037009
4.25280516
4.25280516
4.25280516
4.25280516
4.255882443
4.255882443
4.262037009
4.262037009
4.265114292
4.265114292
4.265114292
4.265114292
4.262037009
4.262037009
4.255882443
4.255882443
4.268191575
4.268191575
4.262037009
4.262037009
4.25280516
4.25280516
4.249727877
4.249727877
4.246650594
4.246650594
4.246650594
4.271268858
4.271268858
4.268191575
4.268191575
4.25280516
4.25280516
4.249727877
4.249727877
4.258959726
4.258959726
4.277423424
4.277423424
4.268191575
4.268191575
4.265114292
4.265114292
4.240496028
4.240496028
4.246650594
4.246650594
4.262037009
4.262037009
4.255882443
4.255882443
4.258959726
4.258959726
4.255882443
4.255882443
4.255882443
4.255882443
4.258959726
4.258959726
4.268191575
4.268191575
4.255882443
4.255882443
4.258959726
4.258959726
4.258959726
4.258959726
4.258959726
4.249727877
4.249727877
4.255882443
4.255882443
4.258959726
4.258959726
4.25280516
4.25280516
4.255882443
4.255882443
4.255882443
4.255882443
4.262037009
4.262037009
4.271268858
4.271268858
4.268191575
4.268191575
4.25280516
4.25280516
4.246650594
4.246650594
4.25280516
4.25280516
4.255882443
4.255882443
4.262037009
4.262037009
4.255882443
4.255882443
4.258959726
4.258959726
4.265114292
4.265114292
4.255882443
4.255882443
4.255882443
4.255882443
4.255882443
4.268191575
4.268191575
4.268191575
4.268191575
4.25280516
4.25280516
4.255882443
4.255882443
4.246650594
4.246650594
4.249727877
4.249727877
4.258959726
4.258959726
4.258959726
4.258959726
4.258959726
4.258959726
4.258959726
4.258959726
4.265114292
4.265114292
4.255882443
4.255882443
4.25280516
4.25280516
4.255882443
4.255882443
4.255882443
4.255882443
4.255882443
4.255882443
4.25280516
4.25280516
4.255882443
4.255882443
4.262037009
4.262037009
4.262037009
4.258959726
4.258959726
4.258959726
4.258959726
4.258959726
4.258959726
4.258959726
4.258959726
4.258959726
4.258959726
4.249727877
4.249727877
4.255882443
4.255882443
4.265114292
4.265114292
4.262037009
4.262037009
4.258959726
4.258959726
4.255882443
4.255882443
4.265114292
4.265114292
4.280500707
4.280500707
4.240496028
4.240496028
4.237418744
4.237418744
4.246650594
4.246650594
4.25280516
4.25280516
4.25280516
4.25280516
4.25280516
4.25280516
4.25280516
4.25280516
4.25280516
4.246650594
4.246650594
4.249727877
4.249727877
4.258959726
4.258959726
4.262037009
4.262037009
4.255882443
4.255882443
4.249727877
4.249727877
4.25280516
4.25280516
4.258959726
4.258959726
4.262037009
4.262037009
4.25280516
4.25280516
4.249727877
4.249727877
4.25280516
4.25280516
4.255882443
4.255882443
4.25280516
4.25280516
4.25280516
4.25280516
4.255882443
4.255882443
4.258959726
4.258959726
4.255882443
4.255882443
4.255882443
4.25280516
4.25280516
4.243573311
4.243573311
4.249727877
4.249727877
4.25280516
4.25280516
4.249727877
4.249727877
4.255882443
4.255882443
4.249727877
4.249727877
4.246650594
4.246650594
4.25280516
4.25280516
4.258959726
4.258959726
4.255882443
4.255882443
4.249727877
4.249727877
4.246650594
4.246650594
4.249727877
4.249727877
4.255882443
4.255882443
4.255882443
4.255882443
4.25280516
4.25280516
4.25280516
4.25280516
4.25280516
4.25280516
4.255882443
4.255882443
4.255882443
4.249727877
4.249727877
4.249727877
4.249727877
4.25280516
4.25280516
4.249727877
4.249727877
4.249727877
4.249727877
4.25280516
4.25280516
4.249727877
4.249727877
4.246650594
4.246650594
4.249727877
4.249727877
4.255882443
4.255882443
4.255882443
4.255882443
4.25280516
4.25280516
4.249727877
4.249727877
4.25280516
4.25280516
4.255882443
4.255882443
4.255882443
4.255882443
4.246650594
4.246650594
4.243573311
4.243573311
4.249727877
4.249727877
4.249727877
4.255882443
4.255882443
4.255882443
4.255882443
4.25280516
4.25280516
4.249727877
4.249727877
4.255882443
4.255882443
4.268191575
4.268191575
4.255882443
4.255882443
4.25280516
4.25280516
4.246650594
4.246650594
4.249727877
4.249727877
4.25280516
4.25280516
4.249727877
4.249727877
4.246650594
4.246650594
4.246650594
4.246650594
4.246650594
4.246650594
4.249727877
4.249727877
4.25280516
4.25280516
4.255882443
4.255882443
4.258959726
4.258959726
4.258959726
4.255882443
4.255882443
4.25280516
4.25280516
4.25280516
4.25280516
4.246650594
4.246650594
4.249727877
4.249727877
4.249727877
4.249727877
4.246650594
4.246650594
4.249727877
4.249727877
4.246650594
4.246650594
4.25280516
4.25280516
4.25280516
4.25280516
4.258959726
4.258959726
4.255882443
4.255882443
4.249727877
4.249727877
4.249727877
4.249727877
4.25280516
4.25280516
4.249727877
4.249727877
4.255882443
4.255882443
4.25280516
4.25280516
4.246650594
4.246650594
4.246650594
4.240496028
4.240496028
4.246650594
4.246650594
4.25280516
4.25280516
4.255882443
4.255882443
4.25280516
4.25280516
4.249727877
4.249727877
4.249727877
4.249727877
4.25280516
4.25280516
4.246650594
4.246650594
4.243573311
4.243573311
4.246650594
4.246650594
4.255882443
4.255882443
4.25280516
4.25280516
4.25280516
4.25280516
4.249727877
4.249727877
4.249727877
4.249727877
4.255882443
4.255882443
4.255882443
4.255882443
4.249727877
4.249727877
4.249727877
4.249727877
4.249727877
4.258959726
4.258959726
4.258959726
4.258959726
4.262037009
4.262037009
4.25280516
4.25280516
4.243573311
4.243573311
4.25280516
4.25280516
4.25280516
4.25280516
4.25280516
4.25280516
4.243573311
4.243573311
4.246650594
4.246650594
4.249727877
4.249727877
4.25280516
4.25280516
4.255882443
4.255882443
4.25280516
4.25280516
4.249727877
4.249727877
4.25280516
4.25280516
4.255882443
4.255882443
4.246650594
4.246650594
4.246650594
4.246650594
4.246650594
4.246650594
4.246650594
4.249727877
4.249727877
4.255882443
4.255882443
4.255882443
4.255882443
4.249727877
4.249727877
4.246650594
4.246650594
4.25280516
4.25280516
4.255882443
4.255882443
4.255882443
4.255882443
4.243573311
4.243573311
4.246650594
4.246650594
4.25280516
4.25280516
4.249727877
4.249727877
4.25280516
4.25280516
4.246650594
4.246650594
4.249727877
4.249727877
4.249727877
4.249727877
4.25280516
4.25280516
4.25280516
4.25280516
4.25280516
4.249727877
4.249727877
4.246650594
4.246650594
4.25280516
4.25280516
4.255882443
4.255882443
4.255882443
4.255882443
4.255882443
4.255882443
4.25280516
4.25280516
4.25280516
4.25280516
4.25280516
4.25280516
4.258959726
4.258959726
4.255882443
4.255882443
4.25280516
4.25280516
4.25280516
4.25280516
4.255882443
4.255882443
4.25280516
4.25280516
4.246650594
4.246650594
4.246650594
4.246650594
4.25280516
4.25280516
4.258959726
4.258959726
4.258959726
4.25280516
4.25280516
4.246650594
4.246650594
4.246650594
4.246650594
4.25280516
4.25280516
4.255882443
4.255882443
4.249727877
4.249727877
4.249727877
4.249727877
4.249727877
4.249727877
4.255882443
4.255882443
4.258959726
4.258959726
4.25280516
4.25280516
4.249727877
4.249727877
4.249727877
4.249727877
4.249727877
4.249727877
4.25280516
4.25280516
4.25280516
4.25280516
4.258959726
4.258959726
4.258959726
4.258959726
4.249727877
4.249727877
4.249727877
4.258959726
4.258959726
4.255882443
4.255882443
4.246650594
4.246650594
4.243573311
4.243573311
4.25280516
4.25280516
4.258959726
4.258959726
4.246650594
4.246650594
4.243573311
4.243573311
4.246650594
4.246650594
4.249727877
4.249727877
4.255882443
4.255882443
4.255882443
4.255882443
4.249727877
4.249727877
4.246650594
4.246650594
4.25280516
4.25280516
4.25280516
4.25280516
4.25280516
4.25280516
4.246650594
4.246650594
4.25280516
4.25280516
4.246650594
4.246650594
4.246650594
4.249727877
4.249727877
4.246650594
4.246650594
4.243573311
4.243573311
4.249727877
4.249727877
4.258959726
4.258959726
4.262037009
4.262037009
4.246650594
4.246650594
4.243573311
4.243573311
4.25280516
4.25280516
4.249727877
4.249727877
4.243573311
4.243573311
4.249727877
4.249727877
4.243573311
4.243573311
4.243573311
4.243573311
4.249727877
4.249727877
4.25280516
4.25280516
4.25280516
4.25280516
4.246650594
4.246650594
4.246650594
4.246650594
4.246650594
4.25280516
4.25280516
4.249727877
4.249727877
4.255882443
4.255882443
4.25280516
4.25280516
4.246650594
4.246650594
4.246650594
4.246650594
4.25280516
4.25280516
4.243573311
4.243573311
4.243573311
4.243573311
4.246650594
4.246650594
4.249727877
4.249727877
4.262037009
4.262037009
4.25280516
4.25280516
4.240496028
4.240496028
4.240496028
4.240496028
4.246650594
4.246650594
4.249727877
4.249727877
4.25280516
4.25280516
4.255882443
4.255882443
4.255882443
4.249727877
4.249727877
4.243573311
4.243573311
4.243573311
4.243573311
4.246650594
4.246650594
4.243573311
4.243573311
4.246650594
4.246650594
4.249727877
4.249727877
4.25280516
4.25280516
4.246650594
4.246650594
4.246650594
4.246650594
4.246650594
4.246650594
4.246650594
4.246650594
4.249727877
4.249727877
4.25280516
4.25280516
4.25280516
4.25280516
4.255882443
4.255882443
4.258959726
4.258959726
4.249727877
4.249727877
4.240496028
4.240496028
4.243573311
4.243573311
4.243573311
4.240496028
4.240496028
4.246650594
4.246650594
4.246650594
4.246650594
4.246650594
4.246650594
4.243573311
4.243573311
4.246650594
4.246650594
4.25280516
4.25280516
4.25280516
4.25280516
4.246650594
4.246650594
4.246650594
4.246650594
4.25280516
4.25280516
4.25280516
4.25280516
4.246650594
4.246650594
4.246650594
4.246650594
4.240496028
4.240496028
4.243573311
4.243573311
4.249727877
4.249727877
4.25280516
4.25280516
4.249727877
4.249727877
4.249727877
4.246650594
4.246650594
4.246650594
4.246650594
4.258959726
4.258959726
4.249727877
4.249727877
4.249727877
4.249727877
4.240496028
4.240496028
4.246650594
4.246650594
4.246650594
4.246650594
4.246650594
4.246650594
4.246650594
4.246650594
4.246650594
4.246650594
4.243573311
4.243573311
4.246650594
4.246650594
4.25280516
4.25280516
4.25280516
4.25280516
4.243573311
4.243573311
4.240496028
4.240496028
4.246650594
4.246650594
4.25280516
4.25280516
4.25280516
4.246650594
4.246650594
4.240496028
4.240496028
4.237418744
4.237418744
4.243573311
4.243573311
4.249727877
4.249727877
4.249727877
4.249727877
4.249727877
4.249727877
4.246650594
4.246650594
4.255882443
4.255882443
4.249727877
4.249727877
4.243573311
4.243573311
4.231264178
4.231264178
4.237418744
4.237418744
4.243573311
4.243573311
4.246650594
4.246650594
4.249727877
4.249727877
4.243573311
4.243573311
4.243573311
4.243573311
4.243573311
4.243573311
4.246650594
4.246650594
4.246650594
4.246650594
4.246650594
4.246650594
4.246650594
4.249727877
4.249727877
4.246650594
4.246650594
4.243573311
4.243573311
4.243573311
4.243573311
4.237418744
4.237418744
4.237418744
4.237418744
4.243573311
4.243573311
4.25280516
4.25280516
4.25280516
4.25280516
4.243573311
4.243573311
4.246650594
4.246650594
4.243573311
4.243573311
4.246650594
4.246650594
4.243573311
4.243573311
4.243573311
4.243573311
4.240496028
4.240496028
4.246650594
4.246650594
4.246650594
4.240496028
4.240496028
4.237418744
4.237418744
4.237418744
4.237418744
4.240496028
4.240496028
4.243573311
4.243573311
4.249727877
4.249727877
4.243573311
4.243573311
4.234341461
4.234341461
4.237418744
4.237418744
4.243573311
4.243573311
4.246650594
4.246650594
4.240496028
4.240496028
4.240496028
4.240496028
4.243573311
4.243573311
4.25280516
4.25280516
4.25280516
4.25280516
4.243573311
4.243573311
4.240496028
4.240496028
4.237418744
